time (s)	magX	magY	magZ
6315.649267	61.724724	305.581543	158.820587
6315.652610	62.601402	308.445343	162.502655
6315.655901	62.952076	311.250732	167.996490
6315.659251	64.004089	314.582123	172.613678
6315.662544	64.997665	318.030396	176.821747
6315.666371	65.932793	321.361755	181.497375
6315.669690	66.867912	324.576263	186.348328
6315.673016	67.452370	328.083008	192.835785
6315.676407	68.270607	331.998840	197.686737
6315.679709	69.030396	335.154877	203.239044
6315.683035	70.549973	338.953827	209.609558
6315.686326	71.426651	342.285217	216.038574
6315.689677	72.654007	345.441254	222.292206
6315.693016	73.530685	348.831085	229.247223
6315.696297	75.108711	352.571594	234.624176
6315.700046	76.277618	355.961426	242.397400
6315.703396	77.154297	360.052582	249.761536
6315.706693	78.323204	363.384003	256.833435
6315.710023	80.018120	367.182922	264.898895
6315.713333	81.479256	370.163635	271.737000
6315.716694	82.355934	373.202820	279.568665
6315.720020	84.050850	376.884857	287.751007
6315.723294	84.810638	380.450012	295.991821
6315.726684	86.330215	384.015198	304.407928
6315.730408	88.258911	387.054352	313.700745
6315.733914	88.960258	389.450592	321.941559
6315.737244	90.479843	393.074219	331.059021
6315.740568	91.473404	395.587372	341.170044
6315.743937	93.226768	398.860321	350.930450
6315.747237	94.220337	401.490356	360.866150
6315.750569	95.272354	403.769714	370.801880
6315.753905	96.558151	406.458191	381.380463
6315.757236	97.902397	408.912903	391.666870
6315.760568	98.954414	411.192291	403.180573
6315.763903	99.831100	412.068970	414.051422
6315.767225	101.467560	413.939209	426.967834
6315.770565	102.461136	415.867920	438.890686
6315.773901	104.156052	416.803040	451.573364
6315.777652	105.441849	417.621277	462.677917
6315.780993	106.669205	419.140869	475.945068
6315.784347	107.838104	419.199280	488.978394
6315.787717	108.773232	418.848633	502.303894
6315.791017	109.357681	419.316193	516.389282
6315.794360	110.468147	418.147278	529.714783
6315.797659	112.279953	417.913483	544.676758
6315.800984	113.390411	416.277039	559.054382
6315.804321	114.033318	415.225006	573.665710
6315.807658	114.851547	413.062531	588.218567
6315.811438	116.137344	410.374054	603.531250
6315.814758	116.488022	407.217987	619.194641
6315.818201	117.364700	403.652832	635.033325
6315.821507	118.299820	399.795441	650.112183
6315.824759	119.293396	395.528931	665.775574
6315.828081	119.936295	390.970184	682.081848
6315.831417	120.286972	385.359436	697.803650
6315.834766	121.338989	378.462860	713.408508
6315.838124	121.572769	372.326111	729.714783
6315.841438	121.981888	365.312683	746.020996
6315.844811	122.624786	358.065460	761.918213
6315.848179	122.975464	349.532410	778.341309
6315.851833	123.501465	340.122742	793.478638
6315.855227	123.033905	331.005249	810.603149
6315.858603	122.975464	321.244904	825.915833
6315.861914	122.741669	310.724731	841.345459
6315.865293	122.741669	299.210999	856.307434
6315.868577	122.624786	287.697266	872.087708
6315.871886	122.040329	276.475739	886.289917
6315.875232	121.748108	264.085327	901.719421
6315.878587	120.929871	251.168900	916.213928
6315.881911	119.760956	237.843353	931.059021
6315.885249	118.825836	223.641144	943.449463
6315.889039	117.890709	209.614258	956.716553
6315.892333	117.072479	194.360016	969.516052
6315.895680	115.845123	179.690231	981.672668
6315.898965	113.799530	163.500870	992.368103
6315.902281	111.461723	147.194626	1003.414368
6315.905653	110.117477	130.303925	1014.577454
6315.908990	107.662773	114.348335	1023.285828
6315.912282	106.201637	97.282295	1032.228027
6315.915621	103.454704	79.982468	1040.702515
6315.919349	100.883110	62.390419	1049.703125
6315.922630	98.545296	43.804794	1055.839966
6315.925956	95.564583	26.446522	1062.502686
6315.929291	92.759201	7.568674	1068.230347
6315.932664	89.720047	-10.549385	1071.328003
6315.935959	86.447105	-29.310343	1075.302246
6315.939338	83.641731	-47.486847	1078.282959
6315.942642	80.602570	-65.780243	1080.153198
6315.946020	77.446526	-83.956749	1080.912964
6315.949809	74.056694	-102.191696	1081.205200
6315.953135	70.257744	-120.134422	1078.049194
6315.956434	66.984802	-137.668045	1076.763306
6315.959733	63.887203	-155.026306	1072.029297
6315.963115	60.731152	-172.033905	1068.171875
6315.966406	56.990650	-189.041504	1062.911743
6315.969754	53.250149	-204.529510	1057.067261
6315.973065	49.684982	-220.309769	1050.404419
6315.976404	46.762714	-234.979553	1042.280640
6315.979779	43.665108	-250.350677	1034.039795
6315.983117	40.099945	-263.851562	1024.513306
6315.986883	37.236122	-278.229095	1013.233215
6315.990544	33.437172	-290.970184	1002.537659
6315.993878	30.281124	-303.360626	990.264221
6315.997207	27.475746	-315.984802	978.984192
6316.000540	24.085918	-327.323212	965.834045
6316.003883	21.222092	-337.609589	952.450012
6316.007209	18.708942	-348.597321	938.423096
6316.010541	15.903568	-357.597900	924.162537
6316.013879	13.098190	-366.247803	909.551208
6316.017209	10.234367	-374.605499	892.952698
6316.020540	7.428989	-382.261841	877.581543
6316.023872	4.272942	-390.210419	861.275208
6316.027202	2.227352	-396.697845	845.611877
6316.030541	-0.461132	-403.535919	830.123962
6316.033877	-3.383400	-409.029816	813.525452
6316.037227	-6.422558	-413.530090	796.342529
6316.040537	-8.877262	-417.913513	780.737549
6316.043872	-10.279957	-421.946228	763.262390
6316.047203	-12.968441	-426.154327	745.904114
6316.050533	-15.014027	-430.303894	729.481018
6316.054342	-17.585621	-432.407959	712.298035
6316.057655	-19.689655	-434.745789	695.407349
6316.061036	-21.735241	-436.557556	678.692017
6316.064289	-22.962597	-438.077148	662.327271
6316.067632	-25.125072	-439.772064	645.787292
6316.070957	-26.644657	-440.239624	629.539429
6316.074293	-28.514904	-440.064270	612.590271
6316.077628	-29.742252	-440.414948	596.400940
6316.080972	-31.028049	-440.181213	580.737549
6316.084293	-32.372295	-439.772064	564.898865
6316.087654	-33.424313	-438.310944	548.592651
6316.090984	-34.768551	-436.732910	533.279907
6316.094805	-35.703678	-435.856232	518.668579
6316.098083	-36.405025	-434.219788	503.239075
6316.101381	-37.807713	-431.648163	488.803040
6316.104712	-38.158390	-430.011688	474.776184
6316.108067	-38.976620	-427.732330	460.515503
6316.111438	-39.093510	-424.926941	448.241943
6316.114810	-39.677967	-422.647552	435.383972
6316.118122	-39.970188	-419.549988	421.649292
6316.121459	-39.736408	-416.335480	407.447083
6316.125143	-41.139095	-413.646973	396.634705
6316.128497	-40.905315	-409.789612	384.828735
6316.131938	-41.255985	-406.808899	373.431915
6316.135225	-41.723553	-403.652863	362.268860
6316.138560	-42.249561	-399.737030	351.514893
6316.141919	-42.424892	-395.996521	341.696045
6316.145272	-42.950901	-391.846893	331.585022
6316.148585	-42.775562	-388.690857	321.883087
6316.151950	-42.775562	-385.593201	312.181183
6316.155283	-43.126240	-381.618958	303.940369
6316.158615	-43.593800	-377.177094	294.121552
6316.161904	-43.360020	-373.904144	285.530090
6316.165244	-43.243130	-370.748108	277.172424
6316.168592	-43.301579	-366.832275	269.749847
6316.171967	-43.360020	-362.857971	261.275269
6316.175702	-43.243130	-359.234375	254.495605
6316.179005	-43.184689	-355.786102	247.073029
6316.182372	-43.418468	-351.110474	240.351837
6316.185744	-43.301579	-347.603729	232.987732
6316.189041	-43.301579	-343.980133	226.558716
6316.192428	-43.535358	-339.830505	219.779083
6316.195722	-44.061359	-335.622437	213.408539
6316.199038	-43.126240	-332.057281	207.680878
6316.202403	-42.950901	-329.018127	200.959656
6316.205711	-43.067799	-324.751617	195.758026
6316.209122	-42.775562	-320.952667	189.971954
6316.212453	-43.067799	-317.270599	184.244293
6316.216193	-42.132671	-314.114563	178.633545
6316.219479	-42.541782	-310.198730	174.542358
6316.222813	-42.132671	-307.042664	169.866760
6316.226160	-41.840443	-303.769714	164.372894
6316.229481	-40.963764	-300.672119	161.041504
6316.232782	-40.671535	-297.223846	156.190521
6316.236082	-40.905315	-293.600250	151.339569
6316.239435	-40.671535	-291.087097	147.131500
6316.242837	-40.729984	-287.405029	143.683228
6316.246568	-40.028637	-284.950317	139.182953
6316.249875	-40.028637	-281.852722	136.085327
6316.253172	-39.736408	-278.696686	132.461731
6316.256492	-39.444187	-275.832855	129.481018
6316.259837	-39.327297	-272.735260	126.617195
6316.263159	-38.918171	-269.929871	122.409126
6316.266491	-38.684391	-266.832275	119.603737
6316.269805	-39.268848	-264.669800	116.739922
6316.273627	-38.801281	-262.624207	113.759209
6316.277178	-38.216831	-259.877258	111.655174
6316.280515	-38.333721	-257.188782	109.025124
6316.283843	-37.924603	-254.850983	106.278206
6316.287185	-37.690823	-252.922272	104.057289
6316.290516	-37.983051	-250.642914	102.245461
6316.293843	-37.281704	-248.597321	99.615425
6316.297198	-37.632374	-246.142609	97.394508
6316.300517	-37.164814	-244.447693	95.641136
6316.303842	-36.755703	-242.285217	93.186440
6316.307194	-36.931034	-240.356537	90.907066
6316.310514	-36.580357	-238.836945	89.913506
6316.313843	-36.755703	-236.557571	87.517250
6316.317181	-36.814144	-235.330215	85.763878
6316.320510	-36.580357	-232.875504	84.127403
6316.323843	-36.697254	-230.713043	83.426064
6316.327181	-36.288136	-229.076569	82.081825
6316.330513	-36.463467	-227.556976	80.211571
6316.334270	-36.171246	-226.154297	79.276451
6316.337606	-36.229687	-224.926941	78.516655
6316.340951	-36.054356	-222.998260	76.178841
6316.344288	-36.171246	-222.355362	74.191689
6316.347636	-35.177670	-221.069565	73.315025
6316.350963	-36.054356	-219.491516	72.029228
6316.354326	-35.586788	-217.855072	70.626534
6316.357602	-35.586788	-216.978378	68.464058
6316.360940	-35.411457	-215.341919	68.171822
6316.364273	-35.820576	-214.114563	67.704262
6316.368021	-35.119221	-213.004105	66.652260
6316.371423	-35.528347	-211.893646	65.600235
6316.374706	-35.119221	-210.374054	64.840439
6316.378097	-35.294559	-209.555832	64.314430
6316.381432	-34.943890	-208.737579	63.203972
6316.384708	-35.177670	-208.211578	61.333725
6316.388012	-35.119221	-206.516663	61.216835
6316.391354	-34.710110	-206.224426	60.223267
6316.394731	-34.534771	-205.464645	59.755699
6316.398046	-34.710110	-204.938644	58.820580
6316.401460	-35.002331	-203.828186	58.060783
6316.404753	-34.184101	-203.009933	58.762131
6316.408514	-34.943890	-202.542374	57.593224
6316.411871	-34.768551	-202.367035	57.359436
6316.415193	-34.710110	-201.782593	58.119232
6316.418588	-34.593220	-201.665710	56.248978
6316.421890	-34.651661	-200.204559	56.248978
6316.425210	-34.710110	-200.730576	56.482765
6316.428625	-34.827000	-199.444763	56.482765
6316.431984	-34.827000	-199.269424	55.664520
6316.435282	-34.710110	-199.970779	55.313858
6316.438666	-35.002331	-199.269424	55.547638
6316.441952	-35.060780	-199.152557	54.787842
6316.445357	-34.885441	-199.269424	54.612511
6316.448685	-35.879017	-199.152557	54.670952
6316.452041	-35.294559	-199.210999	54.729393
6316.455419	-35.995907	-199.094101	54.028053
6316.458747	-35.820576	-198.568100	54.787842
6316.462498	-36.288136	-198.626541	54.846291
6316.465826	-36.288136	-200.029221	55.080070
6316.469140	-36.405025	-199.386322	55.196960
6316.472492	-36.580357	-199.269424	55.196960
6316.475811	-36.405025	-199.503220	55.372292
6316.479121	-36.580357	-199.561661	56.073647
6316.482427	-37.340153	-199.912323	55.956749
6316.485722	-37.223263	-200.087677	55.898300
6316.489081	-37.106373	-200.905914	57.067207
6316.492856	-37.164814	-200.672119	56.599648
6316.495831	-38.333721	-200.438354	57.008774
6316.499577	-38.158390	-201.957932	58.294563
6316.502928	-37.807713	-201.782593	58.002335
6316.506331	-37.924603	-203.185287	58.703682
6316.509674	-38.450611	-202.951492	58.119232
6316.512961	-38.509060	-203.769730	58.937462
6316.516335	-38.275280	-204.412613	58.879021
6316.519658	-38.684391	-205.055542	59.405022
6316.523018	-38.859730	-205.873764	60.573929
6316.526333	-39.093510	-205.990662	61.275276
6316.529697	-39.794857	-206.984222	61.859734
6316.533071	-39.736408	-207.860916	62.444183
6316.536367	-40.145527	-209.205139	63.437752
6316.540127	-40.320866	-209.848038	64.548210
6316.543822	-40.613094	-210.549393	65.074226
6316.547176	-40.846874	-211.893646	66.184700
6316.550486	-41.080654	-213.296341	66.593803
6316.553823	-41.606663	-214.523666	66.652260
6316.557152	-42.015781	-215.751022	68.873177
6316.560485	-41.840443	-217.445938	70.451195
6316.563824	-42.249561	-218.381058	71.210991
6316.567150	-42.834011	-219.549988	72.964348
6316.570487	-43.535358	-220.952667	73.841026
6316.573821	-43.360020	-222.063126	75.243721
6316.577164	-43.769138	-223.816483	76.997078
6316.580495	-44.119808	-225.102280	77.873756
6316.583829	-44.879604	-226.797195	78.867332
6316.587156	-45.230267	-228.433670	80.386909
6316.590484	-46.165394	-229.836365	82.666267
6316.593816	-46.632961	-231.765045	84.478081
6316.597154	-47.392750	-233.167740	86.523674
6316.600483	-47.451199	-236.090012	88.160133
6316.603815	-48.210987	-237.784927	89.738167
6316.607594	-48.327877	-239.012268	90.673286
6316.610910	-49.321445	-241.817657	93.829338
6316.614243	-50.256573	-243.512573	95.173576
6316.617571	-50.724140	-245.675049	97.219170
6316.620952	-51.659260	-247.428406	99.381645
6316.624260	-52.419056	-250.058441	101.953255
6316.627591	-52.828167	-251.870270	103.648155
6316.630909	-53.061954	-253.740509	106.511986
6316.634241	-53.412617	-256.312103	108.557564
6316.637570	-54.581532	-258.649902	111.129173
6316.641331	-54.873753	-261.163055	112.882530
6316.644684	-55.691990	-263.617767	115.980125
6316.648014	-55.925777	-266.072479	119.194618
6316.651433	-57.211567	-269.170074	122.409126
6316.654743	-58.263592	-271.507904	124.863823
6316.658051	-58.322041	-273.845703	128.370544
6316.661328	-59.198711	-276.475769	131.701935
6316.664675	-59.490940	-279.924042	134.974854
6316.667990	-60.718288	-282.846313	138.832245
6316.671344	-61.244297	-285.242554	142.105194
6316.674683	-61.945644	-288.749268	146.839264
6316.678073	-62.939213	-291.729980	150.345978
6316.681403	-63.406780	-294.535370	154.670959
6316.685075	-64.517242	-297.866730	158.762146
6316.688474	-65.686142	-301.256592	163.379303
6316.691831	-66.913498	-304.295746	167.645844
6316.695177	-68.374634	-307.451782	172.847443
6316.698508	-68.959076	-310.900055	177.523071
6316.701830	-70.244888	-315.049683	183.250732
6316.705200	-71.004684	-317.796600	188.510803
6316.708481	-72.232025	-321.011108	194.063110
6316.711879	-73.050262	-324.693176	199.732300
6316.715166	-74.277618	-328.492096	205.343079
6316.718502	-75.680298	-332.174164	211.830505
6316.722267	-77.024536	-335.563995	218.610168
6316.725542	-78.018112	-339.012268	224.980713
6316.728896	-79.070129	-342.752777	231.234375
6316.732168	-80.531265	-346.376373	238.656921
6316.735507	-82.284622	-350.292236	244.969025
6316.738815	-83.395081	-354.266510	253.385162
6316.742138	-84.622437	-357.773254	260.515472
6316.745910	-86.258911	-361.805969	268.639374
6316.749203	-87.369370	-365.137360	276.997070
6316.752563	-88.888947	-369.053192	284.770294
6316.755870	-90.174744	-372.501465	293.069550
6316.759229	-91.635880	-376.241974	302.420807
6316.762506	-92.746338	-380.391602	311.596710
6316.765854	-94.149033	-383.839874	320.889526
6316.769127	-95.610168	-387.405060	331.000580
6316.772859	-97.188187	-390.502625	340.351868
6316.776142	-98.240204	-394.126251	350.462891
6316.779435	-100.052002	-397.399170	361.684418
6316.782827	-101.396255	-401.548798	372.613647
6316.786133	-102.565170	-404.763306	383.133820
6316.789489	-103.850952	-407.802490	394.355347
6316.792798	-105.428986	-410.666260	405.985962
6316.796129	-106.481003	-414.056091	419.837524
6316.799888	-107.825241	-416.861481	431.818817
6316.803160	-109.169495	-419.900635	445.378143
6316.806467	-110.864395	-422.296906	458.119263
6316.809762	-112.559311	-424.634735	471.795471
6316.813173	-113.611343	-427.615448	485.530090
6316.816461	-115.189362	-429.661041	498.914062
6316.819808	-116.182938	-431.239014	514.285217
6316.823111	-117.702499	-432.583282	529.481018
6316.826842	-118.988312	-433.985992	544.442993
6316.830460	-120.274094	-435.505585	558.762085
6316.833788	-121.735229	-435.856232	574.308594
6316.837143	-123.021042	-436.323792	590.731750
6316.840456	-124.774399	-437.083557	607.213318
6316.843796	-126.060196	-437.025146	623.694946
6316.847126	-127.170654	-436.732910	638.656921
6316.850462	-128.339554	-436.849823	655.606079
6316.853792	-129.800705	-435.447113	672.146118
6316.857124	-131.144943	-433.927521	689.796631
6316.860454	-132.430740	-432.174164	706.804199
6316.863791	-133.365860	-429.193451	724.337830
6316.867144	-134.359421	-426.212738	740.410278
6316.870451	-135.236115	-422.881348	757.300964
6316.873786	-136.112793	-419.140869	774.834595
6316.877117	-137.047913	-415.049683	791.783752
6316.880458	-137.573929	-410.374054	807.680908
6316.884251	-137.807709	-405.055511	824.279358
6316.887547	-138.509048	-398.977234	841.111572
6316.890883	-138.275269	-392.022217	858.177673
6316.894206	-138.567505	-385.943878	873.139709
6316.897540	-138.625946	-378.346008	888.919983
6316.900884	-139.093506	-370.806549	905.343079
6316.904219	-138.625946	-362.273529	919.662231
6316.907542	-137.924591	-353.272949	933.513794
6316.910905	-138.216827	-343.395691	947.774353
6316.914237	-137.164810	-333.343079	961.333679
6316.917564	-135.937454	-322.238464	973.607239
6316.920962	-135.060776	-310.490967	985.822327
6316.924640	-134.008759	-299.386322	997.803650
6316.927985	-132.956741	-286.645233	1009.083557
6316.931290	-131.261841	-273.611908	1018.668640
6316.934655	-130.268265	-260.052612	1028.370605
6316.937980	-127.871994	-246.142609	1038.014160
6316.941378	-126.586197	-231.765045	1045.845825
6316.944717	-124.540619	-217.387497	1052.859253
6316.948008	-122.027466	-201.665710	1058.586914
6316.951296	-119.864990	-185.417877	1064.840454
6316.955085	-117.351837	-169.579193	1069.983643
6316.958469	-115.656921	-152.513153	1074.425537
6316.961797	-112.909988	-135.973129	1077.114014
6316.965167	-110.630615	-117.796608	1078.925781
6316.968455	-108.409698	-100.672119	1079.685547
6316.971828	-105.779663	-82.086494	1079.510254
6316.975106	-102.623596	-63.734650	1080.094727
6316.978465	-100.753357	-46.142609	1077.581543
6316.981815	-97.246628	-27.498537	1073.665771
6316.985132	-94.616592	-8.620689	1071.152588
6316.988456	-92.103439	9.438925	1066.593872
6316.991799	-89.356522	29.018118	1062.035034
6316.995574	-86.025131	46.902397	1054.787964
6316.998908	-83.044418	64.962013	1048.008301
6317.002178	-80.531265	83.021629	1040.644165
6317.005559	-77.492096	100.496788	1032.052612
6317.008888	-74.336060	118.147278	1022.876648
6317.012252	-71.530670	135.154877	1013.057800
6317.015552	-68.491516	152.045578	1002.479187
6317.018875	-65.335480	168.527176	992.075989
6317.022200	-61.887196	184.833420	980.971375
6317.025514	-58.380474	200.263000	968.873108
6317.029300	-55.867329	215.283447	956.424255
6317.032620	-52.828167	230.011688	944.267700
6317.035926	-49.964344	243.921661	930.942078
6317.039241	-46.866741	257.597900	918.142639
6317.042578	-43.769138	269.754517	904.466370
6317.045961	-41.022205	282.554077	889.270630
6317.049298	-37.573933	294.184692	874.483887
6317.052615	-35.645237	305.523071	859.697266
6317.056015	-32.313847	317.212158	844.618347
6317.059308	-29.099354	327.147888	831.059021
6317.062640	-26.703098	337.375793	815.804810
6317.066429	-23.722378	346.317932	800.316772
6317.069352	-21.092342	355.844543	785.471680
6317.073080	-19.338985	364.143768	769.632935
6317.076391	-15.890705	372.033875	755.138550
6317.079725	-13.786671	379.398010	739.884338
6317.083137	-11.156628	386.002319	724.571594
6317.086458	-8.935711	393.132660	708.791321
6317.089781	-6.597897	398.860321	694.063110
6317.093087	-4.610752	403.477478	678.107544
