time (s)	magX	magY	magZ
5154.377134	327.113953	-204.843964	272.075958
5154.380462	325.828186	-203.791931	267.517242
5154.383791	324.659241	-202.272339	263.484497
5154.387131	323.607239	-200.402100	261.029785
5154.390462	321.210999	-199.116302	256.237305
5154.393792	319.925171	-197.772064	252.379913
5154.397151	318.697815	-196.544708	248.639404
5154.400497	317.412048	-195.551147	244.840424
5154.403788	316.184692	-193.505554	241.041504
5154.407137	314.022217	-191.985962	237.008759
5154.410459	312.677979	-191.226196	233.092941
5154.413791	311.625977	-189.122162	229.936874
5154.417124	310.398621	-187.894806	227.248383
5154.420459	309.229675	-185.966095	223.449448
5154.423791	307.534790	-184.855652	220.001175
5154.427124	305.839844	-184.095856	216.903580
5154.430463	304.495605	-182.576263	214.039734
5154.433791	303.268250	-181.641144	210.649902
5154.437121	302.216248	-180.180023	207.260086
5154.440461	300.170654	-179.770874	204.688477
5154.443811	298.125061	-178.718872	201.473984
5154.447125	297.131500	-178.309753	199.253067
5154.450896	294.968994	-176.965515	195.687897
5154.454230	293.683228	-175.971954	193.642319
5154.457543	292.163635	-176.147278	190.544708
5154.460875	290.468719	-175.153717	188.557556
5154.464219	290.059631	-174.335480	186.161316
5154.467570	288.072449	-174.335480	184.817062
5154.470872	286.786682	-173.809479	182.654572
5154.474214	284.974854	-173.575684	180.199875
5154.477561	283.922852	-172.932800	179.264755
5154.480903	283.747498	-172.582123	176.693161
5154.484711	282.578613	-172.056122	176.634705
5154.488009	281.117462	-172.406769	174.121567
5154.491299	280.123901	-171.646973	173.127991
5154.494629	278.779663	-171.179413	171.842194
5154.497999	278.662781	-170.653412	171.374634
5154.501323	278.370544	-170.185852	170.907074
5154.504690	277.610779	-170.653412	170.088837
5154.508037	276.792542	-170.010529	168.978378
5154.511367	276.091187	-169.718292	168.101700
5154.514632	276.383423	-169.426056	168.043243
5154.518415	275.798950	-168.841614	167.575684
5154.521783	275.798950	-168.607819	166.991226
5154.525153	276.149597	-168.490936	167.049683
5154.528483	275.565186	-167.555817	166.523666
5154.531840	275.623596	-167.263580	165.997665
5154.535186	275.506714	-166.562256	165.646988
5154.538448	275.857422	-166.503784	165.705444
5154.541784	275.097595	-165.627106	164.361191
5154.545114	275.156067	-166.094696	164.185852
5154.548458	275.272949	-165.451782	163.367630
5154.551744	275.448273	-164.808868	163.426071
5154.555115	275.272949	-164.575104	162.841614
5154.558869	275.331360	-163.873749	162.607834
5154.562222	274.746918	-163.464630	161.731155
5154.565503	274.980713	-163.815308	161.672699
5154.568822	274.922272	-163.815308	159.802460
5154.572103	274.571594	-163.464630	160.211563
5154.575425	274.980713	-164.049103	159.860901
5154.579111	273.928711	-163.464630	160.094681
5154.582400	274.454712	-163.230865	159.802460
5154.585719	274.922272	-163.990662	159.276443
5154.589000	274.630066	-163.932190	159.101105
5154.592332	274.513153	-164.399750	159.510223
5154.596038	274.454712	-163.932190	160.620682
5154.599294	273.987152	-164.399750	160.796036
5154.602580	274.337830	-165.101105	161.146698
5154.605840	274.162476	-165.568665	161.497375
5154.609180	274.980713	-165.860901	161.731155
5154.612870	274.162476	-166.737579	163.250732
5154.616176	275.097595	-167.322052	164.010513
5154.619477	275.272949	-167.497375	165.062546
5154.622754	275.389832	-168.549377	166.757446
5154.626104	275.565186	-168.724731	166.640564
5154.629363	276.558716	-169.601410	168.803040
5154.633076	278.136780	-170.361206	170.030380
5154.636363	278.604309	-171.062531	171.549973
5154.639668	279.071899	-171.413208	174.063110
5154.642995	280.357666	-171.822327	175.407364
5154.646277	281.585022	-172.815887	177.920517
5154.649994	282.520142	-173.225006	179.556992
5154.653276	284.215088	-173.984802	181.251892
5154.656556	285.091766	-174.861481	183.765060
5154.659908	286.085327	-175.270599	185.752182
5154.663174	287.371155	-175.212158	187.797760
5154.666551	288.540039	-176.030396	189.960251
5154.670267	290.001160	-175.971954	192.999420
5154.673766	290.936279	-177.082397	194.577438
5154.677097	292.981873	-177.666870	196.856812
5154.680458	294.442993	-178.426666	199.136169
5154.683763	295.904144	-178.835754	200.188187
5154.687093	297.073059	-179.127991	203.519592
5154.690433	297.540619	-179.537109	205.331375
5154.693781	299.469299	-180.530670	207.084732
5154.697094	301.398010	-180.764465	210.123901
5154.700426	302.157806	-181.641144	212.812378
5154.703763	303.911194	-182.751617	215.208649
5154.707101	304.846313	-183.277618	217.137344
5154.710423	305.839844	-184.212738	219.592056
5154.713761	307.885437	-184.914062	221.579193
5154.717541	308.528381	-186.199890	224.910583
5154.720846	310.515503	-187.836334	227.365280
5154.724207	311.216858	-188.303925	230.112228
5154.727519	312.385742	-189.589722	232.742249
5154.730851	313.729980	-190.641724	237.300995
5154.734182	315.074219	-192.570435	240.457031
5154.737519	316.944458	-193.447113	243.437744
5154.740851	317.938049	-195.142029	247.412048
5154.744205	318.464050	-196.369385	250.801880
5154.747531	320.743408	-197.830505	255.652832
5154.750867	322.496765	-199.759216	260.094666
5154.754635	323.607239	-201.278778	264.419647
5154.757948	325.652832	-203.090576	269.855042
5154.761269	327.289307	-204.084167	275.407379
5154.764623	329.510254	-205.720612	280.083008
5154.767968	331.672668	-207.064880	287.037994
5154.771382	333.426086	-208.759796	292.531860
5154.774670	335.413208	-210.162476	297.967285
5154.777951	337.049683	-211.740509	303.987152
5154.781262	340.205750	-213.084747	311.000580
5154.784603	342.075989	-214.487457	317.488007
5154.788455	343.244873	-215.305664	324.501465
5154.791769	346.459351	-216.766785	330.638214
5154.795101	348.095825	-218.052612	337.125671
5154.798471	351.018127	-218.929291	344.606659
5154.801766	352.654602	-219.747498	352.730560
5154.805048	355.576843	-221.267090	359.393341
5154.808426	357.973145	-221.793121	366.348358
5154.811783	359.258911	-223.020477	373.770874
5154.815145	362.181213	-224.364685	381.485687
5154.818421	363.817627	-225.475159	389.609619
5154.821729	365.863220	-226.410278	396.564575
5154.825545	368.259521	-227.462311	403.987152
5154.828843	369.603760	-228.689667	411.351227
5154.832113	371.590881	-228.981873	419.416687
5154.835411	373.285828	-230.676819	427.248413
5154.838698	375.740479	-232.079498	436.132080
5154.841959	376.208069	-233.423737	444.022217
5154.845706	377.961426	-234.651093	452.555206
5154.848988	379.364136	-235.527771	462.783173
5154.852281	380.357666	-236.755127	470.497986
5154.855566	381.585022	-238.976044	478.738770
5154.858839	382.578613	-240.261841	488.966675
5154.862620	383.513733	-241.664520	498.493286
5154.865863	384.156616	-242.833435	508.019836
5154.869160	384.741089	-244.703705	519.767395
5154.872465	384.857971	-245.989471	529.235535
5154.875750	385.617737	-247.918182	539.872559
5154.879494	386.202209	-249.320892	551.269409
5154.882773	386.202209	-250.665100	562.374023
5154.886053	386.202209	-251.717133	574.296875
5154.889334	385.617737	-253.178253	586.862671
5154.892592	386.085327	-254.230286	599.486877
5154.896326	385.383972	-254.814728	612.403259
5154.899597	384.799561	-255.808289	625.904175
5154.902839	384.624207	-256.042084	639.171265
5154.906127	383.922852	-256.801880	653.081238
5154.909905	382.812378	-257.444794	665.997681
5154.913215	382.227905	-257.152557	680.141418
5154.916489	380.591492	-257.678558	695.629456
5154.919789	379.364136	-256.918762	709.247253
5154.923085	377.727661	-257.269440	722.748108
5154.926343	375.389832	-256.626556	737.242554
5154.930087	373.285828	-255.866760	752.087646
5154.933739	371.357117	-254.580933	766.582153
5154.937074	369.194641	-253.119812	780.258301
5154.940412	366.213928	-252.301605	795.512634
5154.943737	363.583862	-250.431335	809.071838
5154.947072	360.544739	-248.911743	824.618347
5154.950409	356.453552	-248.093536	837.710144
5154.953743	353.589722	-245.463470	852.029236
5154.957071	349.323181	-244.411469	865.530151
5154.960405	345.582703	-242.073639	878.855652
5154.963739	341.316162	-240.086487	892.356506
5154.967071	336.582092	-237.924011	904.922241
5154.970428	331.205139	-235.820007	919.066101
5154.973734	325.886597	-233.832855	931.105713
5154.977070	319.925171	-231.553467	945.132690
5154.980397	314.372864	-229.917023	958.750488
5154.983731	308.645203	-227.637634	969.270630
5154.987512	301.690247	-225.942719	983.005249
5154.990840	294.326111	-222.669769	994.986572
5154.994181	286.728210	-219.689056	1006.967834
5154.997489	279.597900	-217.701935	1018.539978
5155.000853	271.532440	-215.071869	1029.820068
5155.004158	262.590271	-212.558746	1041.684326
5155.007488	253.765030	-209.285797	1052.789062
5155.010822	243.829330	-205.837524	1064.185791
5155.014164	233.542953	-202.272339	1074.881348
5155.017485	223.490356	-198.122711	1084.700195
5155.020835	212.444183	-193.973114	1095.161865
5155.024665	201.105789	-189.648163	1105.506836
5155.027979	189.533600	-184.446503	1114.507324
5155.031260	178.955002	-179.537109	1124.150879
5155.034578	166.798370	-174.043243	1132.157715
5155.037906	154.349487	-168.023376	1139.288086
5155.041256	141.491516	-161.945068	1146.009277
5155.044595	129.510223	-154.931610	1153.607178
5155.047989	116.418465	-148.151947	1158.925781
5155.051352	103.618935	-141.021637	1164.828613
5155.054578	90.527176	-133.248413	1169.913574
5155.058348	77.552307	-126.059608	1173.595459
5155.061752	63.876095	-118.578606	1176.283936
5155.065069	51.135010	-110.513145	1179.323242
5155.068394	37.400349	-102.506134	1180.784424
5155.071753	24.074810	-93.797775	1181.777832
5155.075077	11.099941	-85.498543	1181.485596
5155.078373	-1.465809	-77.666862	1181.602539
5155.081735	-14.557568	-68.783165	1181.076660
5155.085060	-26.889542	-60.951492	1180.258301
5155.088411	-39.981300	-53.236702	1177.803711
5155.091753	-52.196373	-45.580360	1175.582764
5155.095082	-64.528343	-38.391582	1172.543457
5155.098838	-77.152550	-30.033897	1169.095215
5155.102139	-88.783173	-22.494450	1165.062500
5155.105427	-100.881363	-15.130333	1161.906494
5155.108711	-112.862656	-8.000000	1156.704834
5155.111998	-124.259491	-1.629457	1151.678711
5155.115764	-135.422562	5.208649	1145.366455
5155.119041	-146.760956	12.280538	1138.645264
5155.122317	-158.099365	18.475744	1132.157715
5155.125608	-169.379303	24.612507	1124.852051
5155.128855	-180.659271	30.924604	1116.786621
5155.132635	-191.179443	37.704266	1108.721191
5155.135881	-201.232025	43.724136	1099.954346
5155.139138	-212.044418	49.744011	1090.836914
5155.142430	-223.207474	55.763878	1080.784424
5155.146188	-233.143173	61.783752	1070.790283
5155.149461	-243.721786	67.862068	1061.322021
5155.152741	-253.482162	73.998825	1049.691406
5155.156032	-263.593201	80.018700	1037.125732
5155.159314	-273.119812	85.980125	1025.202881
5155.162626	-282.587952	92.350670	1012.695496
5155.166377	-291.471619	97.786087	1000.655762
5155.169659	-300.179993	104.098183	988.791321
5155.172958	-308.303955	109.825836	974.705994
5155.176195	-316.603149	116.021042	962.023376
5155.179470	-324.084167	121.514900	948.580994
5155.183258	-331.565186	127.710106	933.385132
5155.186534	-338.052612	133.613098	919.241394
5155.189834	-344.423157	138.405609	905.331360
5155.193115	-349.800110	143.957916	892.356506
5155.196388	-355.820007	148.984222	877.277588
5155.200182	-361.021606	154.478088	863.484497
5155.203710	-365.229675	159.679718	849.516052
5155.207051	-370.314453	163.069550	835.722961
5155.210382	-373.704285	167.511383	821.520752
5155.213710	-377.620117	171.544128	808.838135
5155.217041	-380.834595	175.109283	795.687927
5155.220382	-383.347778	178.791351	782.362366
5155.223715	-386.445374	182.239624	769.971924
5155.227049	-388.783203	185.278778	757.230835
5155.230402	-390.945618	187.441254	744.898865
5155.233715	-392.523682	189.895966	732.917603
5155.237040	-394.569275	192.175323	721.286926
5155.240379	-397.023987	193.052032	709.188782
5155.243716	-398.017517	195.331390	697.908813
5155.247039	-399.770874	196.792511	687.330200
5155.250370	-400.881348	197.610748	675.933411
5155.253711	-401.757996	198.896545	664.653442
5155.257463	-403.219177	199.890137	653.841064
5155.260800	-403.862061	200.533020	643.203979
5155.264136	-403.920532	201.000580	632.683838
5155.267520	-404.855652	201.877258	621.403870
5155.270814	-405.147888	202.344818	610.357727
5155.274161	-406.024536	202.227936	600.012878
5155.277469	-405.673828	202.695496	589.668030
5155.280797	-405.498535	202.987732	579.615417
5155.284131	-405.557007	202.812378	568.510803
5155.287468	-405.206299	203.630615	557.406189
5155.291258	-404.797180	203.279938	546.886047
5155.294564	-404.388062	202.870850	536.716553
5155.297958	-403.394531	202.812378	525.962585
5155.301280	-402.342468	203.747528	516.202271
5155.304594	-401.173584	203.981293	505.039124
5155.307885	-400.238464	203.513733	495.278748
5155.311242	-399.127991	203.513733	485.284637
5155.314567	-397.900635	203.455292	474.822937
5155.317910	-395.504395	203.513733	465.004089
5155.321284	-394.277039	203.805969	454.425476
5155.324612	-392.465210	203.805969	445.015808
5155.327976	-390.594971	203.572174	435.372284
5155.331646	-388.607788	202.929291	427.423737
5155.335016	-386.503784	203.805969	419.241364
5155.338389	-384.165955	202.870850	411.059021
5155.341711	-382.354187	203.104614	403.344238
5155.345081	-380.483948	202.637054	394.928101
5155.348360	-378.438354	201.818817	388.090027
5155.351669	-376.451172	201.000580	381.310364
5155.355012	-373.996521	201.175903	373.946228
5155.358386	-372.476929	200.357697	367.400330
5155.361715	-369.846863	200.007019	362.023376
5155.365494	-367.918152	198.721222	356.003510
5155.368839	-365.872620	198.312103	350.334320
5155.372186	-364.294556	197.902985	344.840424
5155.375462	-362.482788	196.850983	339.697235
5155.378781	-360.846313	195.857391	333.852722
5155.382063	-358.391602	195.272949	329.118652
5155.385416	-357.105774	194.104034	324.735229
5155.388701	-355.410889	192.642883	320.118042
5155.392071	-353.657532	192.175323	314.624207
5155.395780	-352.137939	190.831085	309.890137
5155.399086	-349.975464	190.012848	305.857391
5155.402375	-348.923462	189.077728	301.766205
5155.405645	-347.228516	187.850372	297.675049
5155.408947	-345.358276	186.798370	293.408539
5155.412666	-343.721802	186.272339	289.258911
5155.415934	-341.442444	185.103455	284.524841
5155.419265	-339.805969	183.642303	280.492096
5155.422529	-338.227966	182.999420	275.933380
5155.425866	-336.708374	181.772064	272.309753
5155.429581	-334.838074	181.129150	267.341919
5155.432823	-333.318542	179.668030	263.952057
5155.436107	-331.331421	179.434265	259.393341
5155.439397	-330.104065	177.914673	256.295746
5155.442708	-328.233765	177.797760	252.146118
5155.446435	-326.363525	176.804199	247.412048
5155.449710	-323.616577	176.453522	243.437744
5155.453026	-321.863220	175.576843	240.223267
5155.456324	-320.577454	175.343079	237.125671
5155.459654	-318.590332	174.232605	232.976044
5155.463333	-316.778503	173.589722	228.884872
5155.467037	-314.616028	173.005249	225.787262
5155.470359	-313.037964	172.479248	223.332550
5155.473689	-311.167725	172.245483	219.884277
5155.477017	-309.122131	172.011688	217.838699
5155.480349	-308.128601	171.193451	215.033325
5155.483687	-306.725891	170.609009	212.870850
5155.487014	-304.680298	169.849213	211.351257
5155.490369	-304.095886	169.206299	209.013443
5155.493690	-302.342468	169.381653	206.558731
5155.497018	-301.758057	168.388062	205.272949
5155.500349	-300.647583	168.446533	203.694916
5155.503684	-299.478699	167.511383	201.707779
5155.507019	-298.543518	167.043823	200.831085
5155.510350	-298.192871	167.102264	199.311523
5155.513682	-297.666870	166.225616	198.551727
5155.517018	-296.556396	165.874939	196.623016
5155.520347	-295.445923	165.173584	195.804794
5155.523686	-295.387512	164.472229	194.869675
5155.527076	-294.510803	164.238464	194.577438
5155.530769	-294.510803	164.004669	193.992981
5155.534144	-293.517273	163.712433	193.174744
5155.537441	-293.108154	163.011108	191.888962
5155.540763	-292.640564	161.900635	191.888962
5155.544100	-292.757446	161.783752	190.427811
5155.547439	-292.056091	160.907074	190.486267
5155.550762	-291.530090	161.140839	189.551147
5155.554125	-290.770325	160.614838	188.908249
5155.557457	-290.711853	160.088837	187.563995
5155.560787	-290.536499	159.971954	186.278214
5155.564527	-290.244324	159.621277	185.752182
5155.567858	-289.776733	159.329041	184.933960
5155.571222	-289.075378	159.212158	184.349503
5155.574537	-288.666260	159.153717	184.057266
5155.577896	-287.789612	158.803040	181.777908
5155.581270	-287.672729	159.445923	181.544113
5155.584579	-286.620667	158.919922	180.199875
5155.587853	-286.094666	158.686157	179.498535
5155.591190	-285.919373	158.686157	178.914093
5155.594959	-285.685547	158.919922	178.621857
5155.598393	-285.218018	158.978363	177.862061
5155.601688	-284.282898	158.744598	177.628281
5155.605016	-283.990662	159.095276	177.043839
5155.608325	-284.458191	159.270599	177.511398
5155.611627	-284.633545	159.036804	176.868500
5155.615024	-284.282898	159.387482	177.219177
5155.618352	-284.575073	159.329041	177.219177
5155.621717	-283.756897	159.738159	177.277618
5155.625038	-284.341309	159.913483	177.336060
5155.628345	-284.984253	159.971954	177.978958
5155.632135	-285.393311	160.497955	178.738739
5155.635397	-285.627136	160.322632	179.966095
5155.638673	-286.270020	160.614838	180.901230
5155.641962	-287.088257	160.907074	182.420807
5155.645254	-288.081848	160.731720	183.823502
5155.648529	-288.315613	161.549988	184.524826
5155.651908	-290.068970	161.082428	186.862640
5155.655626	-290.536499	161.783752	188.499130
5155.658866	-291.004089	162.192871	189.609589
5155.662157	-292.231445	162.777313	190.895370
5155.665443	-292.874329	163.127991	191.538300
5155.668790	-293.809448	163.186432	193.934540
5155.672534	-294.978394	163.069550	195.337234
5155.675805	-295.679687	163.829346	196.330795
5155.679155	-296.965515	163.770905	198.434830
5155.682525	-297.900635	164.296906	200.831085
5155.685801	-298.251343	164.589142	202.584457
5155.689055	-299.829346	164.706024	204.279358
5155.692770	-300.706055	165.348907	205.740509
5155.696074	-301.991821	165.641144	207.318527
5155.699444	-302.517822	166.050262	209.481003
5155.702726	-303.686707	166.751587	210.591461
5155.706029	-305.031006	167.336060	212.753952
5155.709307	-305.673889	167.394501	214.098206
5155.713027	-307.427246	168.621857	215.559326
5155.716382	-307.368774	168.797211	217.546463
5155.719650	-308.362366	169.907654	218.890701
5155.722883	-309.355896	170.141449	220.468750
5155.726194	-310.524841	170.725891	221.696075
5155.729909	-311.635315	171.135010	223.507889
5155.733663	-312.921082	172.128571	226.079498
5155.736994	-313.797791	173.648163	228.475739
5155.740326	-315.375793	173.940399	230.053772
5155.743661	-317.304504	174.875519	232.566910
5155.746993	-318.298096	175.869080	235.430756
5155.750319	-319.233215	176.219757	238.645233
5155.753655	-320.577454	177.037994	242.035065
5155.756987	-322.915283	177.739349	244.431335
5155.760318	-324.259521	178.966705	248.113373
5155.763657	-326.071289	179.726471	252.438324
5155.767006	-327.357117	180.544708	255.769745
5155.770322	-329.578003	181.012268	260.445374
5155.773657	-331.682068	182.239624	264.945648
5155.776992	-333.376953	182.999420	267.809479
5155.780318	-335.013428	184.109894	273.654022
5155.783653	-337.234375	184.752777	278.212738
5155.786986	-339.221497	185.687897	283.531281
5155.790318	-341.851562	185.629456	288.499115
5155.794084	-343.838684	186.681488	293.934540
5155.797417	-346.293396	187.499695	299.779083
5155.800747	-348.280518	187.616608	304.746918
5155.804090	-350.326111	189.136169	309.656342
