time (s)	magX	magY	magZ
4960.525922	261.713623	-134.826416	117.371124
4960.529635	262.356506	-135.060211	118.481598
4960.533186	262.648743	-136.229095	120.059616
4960.536520	262.882507	-136.696655	121.462311
4960.539847	263.525421	-138.040924	121.579193
4960.543182	264.168335	-138.450012	123.040329
4960.546516	264.752777	-139.443604	123.800110
4960.549849	265.278809	-139.911163	125.202805
4960.553183	265.804810	-140.320282	126.079483
4960.556547	266.330811	-140.963196	127.599060
4960.559843	267.382812	-141.722961	128.066635
4960.563179	267.558167	-142.365875	128.592636
4960.566514	269.136169	-142.716522	130.755112
4960.569842	270.246643	-143.242554	132.625366
4960.573176	270.188171	-144.060791	133.677383
4960.576513	271.181763	-143.943878	133.969604
4960.580301	272.292236	-145.229706	134.787842
4960.583601	273.694946	-145.229706	136.424316
4960.586939	274.805359	-145.697266	138.060776
4960.590263	275.156067	-146.573944	138.236130
4960.593616	276.324951	-146.632385	140.398590
4960.596940	277.376953	-147.392151	141.392166
4960.600293	278.370544	-147.742828	143.496201
4960.603599	279.890106	-148.853302	144.840454
4960.606957	280.357666	-149.320862	146.476913
4960.610278	281.526611	-149.963776	148.347168
4960.613612	282.695496	-151.424896	150.626541
4960.617359	284.098206	-152.009369	152.496780
4960.620700	285.676208	-153.295135	155.126831
4960.624032	286.669800	-154.171844	157.113968
4960.627383	287.546448	-155.516083	159.919342
4960.630707	288.890686	-156.860321	162.140274
4960.634135	290.351868	-158.204559	165.062546
4960.637415	292.105194	-159.373474	168.218582
4960.640744	293.332550	-161.243713	171.082413
4960.644035	295.144348	-162.646423	174.472244
4960.647352	296.488586	-163.873749	177.862061
4960.651181	298.651062	-165.101105	181.602585
4960.654520	300.755127	-167.322052	185.459961
4960.657838	302.099365	-169.659851	189.258911
4960.661196	303.502014	-171.296326	193.700745
4960.664498	306.015198	-172.465240	197.908813
4960.667840	307.593201	-174.218567	202.701340
4960.671218	309.989502	-176.497955	206.558731
4960.674515	311.275269	-177.959106	210.591461
4960.677847	312.619507	-179.537109	214.974869
4960.681169	314.781982	-181.465790	219.358261
4960.684458	316.886047	-183.043823	224.501450
4960.687829	318.814758	-184.855652	227.540619
4960.691208	320.743408	-185.849213	233.209808
4960.694951	322.964355	-187.602570	238.469879
4960.698247	325.185303	-189.881927	243.087097
4960.701567	327.289307	-190.583282	247.353577
4960.704904	329.159546	-192.044403	252.847473
4960.708203	332.081848	-193.447113	257.523102
4960.711466	333.893616	-195.492706	262.198730
4960.715207	336.523682	-196.603180	268.452362
4960.718495	338.569275	-198.356506	272.835754
4960.721867	340.848633	-198.999420	278.563416
4960.725119	343.303345	-201.103455	283.589691
4960.728393	344.647583	-202.155457	288.966675
4960.731705	348.212769	-204.376404	295.687897
4960.735434	349.498535	-205.369965	302.175323
4960.738743	352.420837	-206.714203	308.487457
4960.742012	353.881958	-208.350677	315.091766
4960.745308	356.395081	-210.337830	321.929871
4960.748600	359.142029	-211.623596	328.826416
4960.752336	360.369385	-213.786102	336.307404
4960.755658	362.064270	-215.364105	344.197540
4960.758917	364.051453	-217.292816	352.321442
4960.762208	365.804810	-219.338409	360.562225
4960.765477	368.493286	-220.974854	368.686157
4960.769196	369.895935	-223.195801	377.803619
4960.772497	371.532471	-225.942719	387.505554
4960.775806	372.467590	-228.397430	396.681488
4960.779073	374.337830	-230.092346	406.441864
4960.782354	376.617187	-233.014618	417.371124
4960.786038	377.493835	-235.352448	427.599091
4960.789397	378.896545	-237.807159	438.236115
4960.793158	379.773254	-240.495636	449.165436
4960.796488	380.825256	-242.132080	461.029785
4960.799823	381.877258	-245.054352	472.952698
4960.803155	382.461731	-247.567505	484.758606
4960.806483	383.104614	-249.496216	496.213867
4960.809823	384.331970	-251.191132	507.727661
4960.813153	383.864380	-252.944489	521.637634
4960.816523	384.974854	-255.223877	534.320312
4960.819818	386.202209	-256.743439	545.892456
4960.823165	385.325500	-258.263000	559.510193
4960.826488	385.325500	-260.425476	571.199280
4960.829817	386.202209	-262.003510	585.050842
4960.833157	385.734680	-262.120392	597.149048
4960.836484	385.383972	-263.406189	610.182373
4960.839822	384.916443	-263.698425	623.741638
4960.843149	385.033325	-264.808899	636.716553
4960.846488	383.981323	-265.802460	649.866760
4960.849815	383.104614	-265.451782	662.958496
4960.853586	382.461731	-266.445374	676.459412
4960.856926	380.942139	-266.503815	689.375793
4960.860290	379.364136	-266.912933	702.584412
4960.863622	377.610779	-266.854462	715.442444
4960.866915	376.734070	-266.620697	729.820007
4960.870243	374.630066	-266.503815	743.320862
4960.873570	372.058472	-266.737610	758.049072
4960.876905	369.253052	-266.386902	772.017578
4960.880244	366.389282	-266.211578	785.752258
4960.883590	362.298035	-265.685577	799.895996
4960.886921	359.492676	-264.925781	815.208679
4960.890263	353.765015	-265.218018	829.177124
4960.894117	348.972534	-264.691986	843.729980
4960.897351	343.303345	-264.399780	859.802490
4960.900662	338.160156	-263.347748	874.413818
4960.904031	331.731140	-263.172424	890.018677
4960.907342	325.009949	-262.412628	904.630005
4960.910696	317.762695	-261.185272	919.416748
4960.914063	309.872559	-260.367065	935.138550
4960.917397	302.450043	-259.373474	950.158997
4960.920723	294.384583	-257.737000	965.763855
4960.924418	285.383972	-255.925201	979.907654
4960.927802	276.558716	-253.996521	994.226746
4960.931187	267.558167	-251.132660	1008.136780
4960.934492	257.388672	-249.028656	1021.637634
4960.937881	247.394516	-245.989471	1034.612549
4960.941149	236.640564	-242.716553	1047.295166
4960.944469	225.945053	-239.209839	1057.406250
4960.947797	214.723557	-235.644653	1070.848633
4960.951156	204.028046	-231.378143	1081.777832
4960.954496	192.280533	-227.053162	1092.999512
4960.957834	180.825241	-222.611328	1102.584473
4960.961527	169.486847	-217.468140	1111.935791
4960.964827	158.616013	-212.792511	1121.170166
4960.968123	146.810059	-206.772644	1130.112305
4960.971405	135.588531	-201.571014	1137.067139
4960.974720	124.074806	-195.492706	1144.255859
4960.978434	112.677963	-189.355927	1150.801758
4960.981821	100.170654	-182.926941	1156.003418
4960.985090	88.481590	-176.907074	1161.555908
4960.988413	76.792519	-170.068970	1166.114502
4960.991687	64.694328	-163.055511	1170.381104
4960.994961	51.719460	-155.866730	1172.192871
4960.998252	39.504383	-149.320862	1175.816406
4961.002015	27.464640	-142.132080	1177.452881
4961.005283	15.132671	-134.884857	1179.323242
4961.008579	2.157803	-127.812981	1180.141357
4961.011852	-10.232613	-120.974876	1179.498535
4961.015586	-22.798363	-113.961433	1180.199951
4961.018905	-36.182350	-106.772652	1177.979004
4961.022187	-49.507889	-99.642311	1175.933350
4961.025463	-63.184105	-92.336639	1174.998291
4961.028741	-76.334305	-85.089417	1171.900635
4961.032044	-89.426056	-78.134430	1168.861572
4961.035804	-102.751602	-71.179428	1165.646973
4961.039073	-116.369370	-64.224434	1160.445312
4961.042353	-130.513153	-56.801872	1155.068359
4961.045624	-144.072464	-49.145531	1149.399170
4961.048915	-156.988907	-43.125656	1142.151855
4961.052660	-170.606659	-35.878437	1135.080078
4961.055961	-183.464645	-28.514317	1126.547119
4961.059223	-195.095276	-21.617767	1119.182861
4961.062509	-207.661011	-14.779659	1109.422607
4961.065808	-219.992996	-7.181765	1099.837402
4961.069542	-231.740494	-0.109877	1090.369385
4961.073130	-242.435989	6.845119	1079.498535
4961.076457	-254.008194	13.858562	1068.686035
4961.079798	-264.060791	20.638222	1058.166016
4961.083149	-273.645813	28.820572	1046.827637
4961.086462	-283.464661	35.600235	1034.787842
4961.089796	-292.172974	42.964348	1023.274109
4961.093141	-300.764465	50.328461	1011.643494
4961.096474	-309.414368	57.049679	999.369934
4961.099790	-316.836914	63.829338	987.622498
4961.103120	-323.675049	70.199883	975.933411
4961.106459	-330.688477	77.271767	963.893616
4961.109796	-337.175903	83.525421	951.152527
4961.113125	-342.435974	89.486855	938.820557
4961.116456	-347.929871	95.798950	925.728821
4961.119791	-352.780823	101.701927	913.279968
4961.123127	-358.391602	107.780243	900.421936
4961.126901	-362.365906	112.514320	888.148437
4961.130216	-366.398621	117.949738	876.693176
4961.133558	-370.489746	122.625366	863.952087
4961.136894	-374.171875	127.476326	851.912354
4961.140241	-377.970764	132.035065	838.937500
4961.143548	-380.951477	135.775574	826.430176
4961.146873	-384.750427	140.100525	813.572144
4961.150211	-387.205139	144.074814	801.298645
4961.153547	-390.594971	147.523087	788.557556
4961.156876	-393.341919	150.562241	776.576233
4961.160652	-396.030396	152.783173	763.016968
4961.163984	-398.485107	156.173004	750.684937
4961.167364	-400.413757	158.627716	738.236145
4961.170727	-402.400940	161.316193	725.553467
4961.173970	-404.563416	163.011108	712.870789
4961.177299	-406.842773	165.758026	700.363525
4961.180631	-408.479248	167.336060	687.330200
4961.183988	-409.706604	169.264771	675.056702
4961.187341	-410.174133	170.433655	662.432495
4961.190698	-411.927551	171.777893	650.451233
4961.194057	-412.511963	172.946808	638.528320
4961.197738	-413.447144	174.875519	626.780823
4961.201124	-412.745789	176.395081	614.156616
4961.204416	-412.804199	177.271759	603.168884
4961.207828	-413.096436	178.791351	590.778503
4961.211132	-412.336670	180.427826	579.966125
4961.214476	-411.985962	181.362946	568.919922
4961.217735	-411.518433	182.882538	558.516663
4961.221098	-410.466431	183.408539	547.645813
4961.224475	-409.063721	184.811218	537.651672
4961.227781	-408.070129	185.571014	527.248413
4961.231169	-406.901245	186.973694	518.189392
4961.234902	-405.323181	188.084167	509.188782
4961.238325	-403.452942	189.077728	499.545349
4961.241578	-401.816467	189.545288	491.304535
4961.244864	-400.589172	190.714203	482.420807
4961.248115	-398.368164	191.766205	473.946228
4961.251379	-396.381042	192.993561	466.231415
4961.255201	-394.510803	193.402679	458.516663
4961.258478	-392.523682	193.578033	450.860291
4961.261749	-391.413208	194.162476	442.794891
4961.265037	-388.724731	195.039154	436.307404
4961.268280	-387.029785	195.039154	428.826416
4961.272064	-384.575073	195.272949	422.222076
4961.275348	-383.289307	195.214478	415.851532
4961.278630	-381.419067	194.805359	408.838104
4961.281900	-379.081238	195.915833	402.642914
4961.285142	-376.977234	195.272949	395.454102
4961.288944	-375.282288	194.220917	390.135620
4961.292231	-373.879578	194.513153	383.648132
4961.295500	-371.775574	193.694916	377.160736
4961.298783	-369.437744	193.344238	371.316162
4961.302043	-367.742859	192.759796	365.121002
4961.305766	-366.398621	191.532440	358.575104
4961.309081	-364.645203	190.889526	352.672119
4961.312374	-362.891907	190.129761	346.301575
4961.315637	-360.086487	189.603729	339.989471
4961.318898	-358.450073	188.493286	334.904724
4961.322650	-357.164185	187.616608	328.943298
4961.326007	-355.177063	186.389252	323.683228
4961.329769	-353.365295	185.629456	317.780243
4961.333099	-351.027466	185.161896	312.520142
4961.336431	-349.157227	184.635895	307.786102
4961.339767	-347.462280	183.583862	302.350677
4961.343128	-345.124451	183.057861	297.850372
4961.346433	-343.780273	182.648743	293.642303
4961.349768	-341.734680	182.298065	289.492676
4961.353099	-339.338379	182.181183	285.226196
4961.356437	-337.994141	182.064270	280.959686
4961.359762	-335.773254	181.362946	277.628296
4961.363105	-334.195190	180.778503	272.952667
4961.366428	-331.565186	180.953827	269.270599
4961.369763	-330.279358	181.070709	265.997650
4961.373099	-328.759766	180.661591	262.783173
4961.376430	-326.947998	181.070709	260.211578
4961.379762	-325.077698	180.135590	257.055542
4961.383096	-323.090576	180.310944	254.951477
4961.386442	-321.337219	180.603149	252.613678
4961.389759	-320.402100	180.661591	248.990051
4961.393098	-318.765625	180.369385	247.295135
4961.396866	-316.778503	180.544708	245.074219
4961.400204	-315.668030	180.018707	242.911743
4961.403513	-313.330200	180.310944	240.749268
4961.406851	-313.096436	179.609589	238.119232
4961.410194	-311.401550	179.784912	236.424316
4961.413518	-310.232605	179.609589	234.495621
4961.416867	-308.362366	179.025116	232.683807
4961.420180	-308.303955	178.908234	231.047348
4961.423561	-306.959656	178.089996	229.469299
4961.426869	-306.199890	178.148437	227.540619
4961.430202	-305.031006	177.797760	225.904144
4961.434006	-303.394531	177.330200	223.624786
4961.437274	-302.167175	177.037994	222.046768
4961.440601	-302.459351	176.570435	220.760956
4961.443939	-301.115112	175.576843	219.358261
4961.447313	-301.056702	175.284637	216.728210
4961.450619	-299.537109	174.583282	216.202225
4961.454004	-298.952698	174.466400	213.747513
4961.457400	-298.426636	173.706604	212.753952
4961.460637	-298.368225	173.180603	210.708359
4961.463935	-296.965515	173.122131	209.539444
4961.467752	-295.679687	172.713043	209.188782
4961.471119	-294.861450	172.888367	207.260086
4961.474435	-294.452393	172.362366	206.208069
4961.477769	-294.393921	172.070129	204.630051
4961.481063	-293.809448	171.836365	204.045593
4961.484377	-292.348328	171.661011	203.110458
4961.487710	-292.348328	172.070129	202.233780
4961.491152	-291.705444	172.128571	202.000000
4961.494434	-291.413208	172.245483	201.590881
4961.497774	-290.828735	172.771484	200.597321
4961.501093	-289.893616	173.122131	199.954422
4961.504896	-289.601379	173.940399	200.480423
4961.507829	-289.484497	174.291046	199.895966
4961.511609	-288.958496	174.583282	200.246643
4961.514895	-288.374023	175.226166	200.597321
4961.518198	-287.848022	176.745758	200.831085
4961.521475	-287.614258	176.278198	200.538849
4961.524805	-288.666260	177.388672	200.655746
4961.528081	-288.198730	177.213318	201.766205
4961.531459	-288.257141	178.265350	202.818237
4961.535170	-288.315613	178.557556	203.285797
4961.538562	-288.081848	179.492676	203.227356
4961.541879	-288.198730	179.843353	204.104019
4961.545124	-287.848022	180.661591	204.513153
4961.548431	-288.140259	181.421387	206.208069
4961.551722	-288.841614	181.070709	206.324966
4961.555501	-289.250732	181.713623	207.786087
4961.558805	-289.484497	182.298065	208.545883
4961.562116	-290.536499	182.181183	208.896545
4961.565410	-290.711853	183.291626	210.357697
4961.568775	-290.361206	183.525421	210.591461
4961.572055	-290.653442	183.642303	211.701920
4961.575361	-291.997681	183.700745	212.753952
4961.578663	-293.049683	184.168304	214.156631
4961.582389	-292.815918	184.226776	215.559326
4961.585661	-293.049683	184.986572	216.845108
4961.588940	-293.867920	184.752777	218.247803
4961.592243	-295.562866	185.571014	218.423141
4961.595555	-295.796631	185.980133	219.533615
4961.599241	-296.205750	185.980133	221.228516
4961.602561	-297.257751	186.447693	221.929871
4961.605868	-297.959106	187.032135	223.390991
4961.609118	-298.601990	187.616608	225.261246
4961.612421	-298.952698	188.376404	226.605499
4961.616136	-299.712463	190.188202	227.774414
4961.619747	-299.946228	190.538849	230.345993
4961.623070	-301.582703	191.473999	231.748688
4961.626407	-302.342468	192.058441	233.911163
4961.629756	-303.219177	193.987152	236.774963
4961.633070	-303.978943	195.097595	239.697235
4961.636407	-304.738770	196.324951	242.268860
4961.639742	-305.440063	197.786102	244.782013
4961.643070	-307.018127	199.071899	246.301575
4961.646403	-307.135010	200.357697	250.100525
4961.649739	-308.537720	201.701935	252.555237
4961.653069	-308.713013	202.929291	256.763306
4961.656405	-310.349487	205.734650	259.101105
4961.659733	-310.875488	206.319122	262.432495
4961.663063	-312.453552	207.955566	266.815918
4961.666843	-313.739319	209.650482	270.322601
4961.670184	-314.849792	211.462311	274.413788
4961.673588	-316.135620	212.105194	278.271179
4961.676830	-316.836914	213.098755	282.011688
4961.680160	-318.239624	214.735229	286.219757
4961.683492	-320.051453	216.956177	290.135620
4961.686816	-320.577454	217.774414	294.519012
4961.690155	-322.038574	218.767975	298.610168
4961.693492	-323.558167	220.579773	303.227356
4961.696832	-324.843933	221.398010	307.727661
4961.700176	-326.655762	222.742249	312.812378
4961.703532	-327.941528	223.911163	317.254242
4961.707336	-330.045593	224.378723	321.170074
4961.710587	-331.331421	225.547638	326.547058
4961.713912	-332.909424	226.482758	330.404419
4961.717240	-334.429016	227.359436	335.430756
4961.720593	-335.714783	228.469910	340.749268
4961.723933	-337.585022	229.288147	344.548218
4961.727308	-339.163086	230.281708	350.860321
4961.730646	-340.390442	231.509064	356.412628
4961.733915	-341.267090	232.911743	362.198730
4961.737684	-342.669800	234.255981	367.809479
4961.741039	-345.007629	235.483337	372.835754
4961.744417	-346.468750	236.769135	379.030975
4961.747751	-347.228516	238.230255	385.050842
4961.751104	-348.748108	239.866760	391.538269
4961.754376	-349.332520	241.269440	397.382812
4961.757707	-350.618347	242.847443	405.272949
4961.761110	-352.196350	244.308594	411.818817
4961.764400	-352.897705	246.237305	418.715363
4961.767745	-353.073059	248.049072	426.547028
4961.771090	-354.183533	250.562256	434.144958
4961.774866	-355.527771	251.672699	441.918152
4961.778122	-355.644653	253.952057	449.457642
4961.781434	-356.229065	255.705444	458.984222
4961.784694	-356.053772	257.341888	468.919922
4961.788000	-356.638184	259.796600	477.277588
4961.791306	-357.398010	261.549957	485.459991
4961.795081	-357.222656	262.835785	494.460571
4961.798385	-357.631775	264.355347	504.454712
4961.801662	-357.514954	266.167145	514.156616
4961.804919	-357.222656	267.511414	523.566345
4961.808205	-356.813538	268.446533	533.735840
4961.811958	-357.281128	269.556976	542.677979
4961.815243	-356.755127	270.433655	552.964355
4961.818540	-355.761536	270.959686	563.776733
4961.821825	-356.229065	271.485687	572.777283
4961.825108	-356.287537	271.894806	583.706604
4961.828887	-355.820007	272.888367	594.577454
4961.832156	-354.358826	273.005249	605.389832
4961.835419	-354.066650	273.122162	616.085327
4961.838702	-353.248413	273.472809	625.962585
4961.841985	-352.371704	272.946838	637.359436
4961.845750	-352.137939	272.362366	647.996521
4961.849045	-350.735229	272.128571	659.627136
4961.852329	-349.332520	271.251892	670.264160
4961.855616	-347.637634	270.258331	681.661011
4961.858996	-346.410278	270.024567	693.408508
4961.862277	-344.481567	268.563416	703.285828
4961.865665	-342.026855	268.037415	715.676208
4961.868922	-339.630615	267.160706	727.189941
4961.872655	-336.883667	266.342499	739.288147
4961.876383	-334.370544	264.589142	751.035645
4961.879715	-330.980713	264.004669	763.309204
4961.883049	-327.298645	262.777313	774.939819
4961.886382	-323.382812	261.608429	786.453552
4961.889715	-319.876099	260.673309	799.428406
4961.893047	-314.791321	259.270599	811.994202
4961.896406	-310.349487	257.809448	823.566345
4961.899712	-304.797180	256.056122	836.015137
4961.903048	-298.601990	254.945648	849.457581
4961.906371	-292.932800	252.607849	860.679199
4961.909719	-286.386902	251.029816	873.595581
4961.913047	-279.782593	248.750427	886.453552
4961.916374	-272.476929	247.289307	899.136169
4961.919706	-264.645264	245.068359	911.292786
4961.923047	-257.105774	241.795441	923.274048
4961.926372	-248.923447	239.106964	935.547668
4961.929715	-240.682632	234.781982	948.814697
4961.933086	-232.032730	231.041504	960.328430
4961.936799	-222.739914	227.417877	972.718811
4961.940159	-213.563980	224.028046	983.122192
4961.943463	-204.212738	219.177094	994.811157
4961.946792	-194.686142	214.384583	1006.091125
4961.950122	-185.744019	209.592041	1016.552917
4961.953463	-175.399185	204.390411	1026.547119
