time (s)	magX	magY	magZ
5066.276382	402.391602	-188.596130	420.760956
5066.279701	399.936890	-188.070129	413.046143
5066.283031	398.008179	-187.661011	405.097595
5066.286400	395.319702	-187.661011	398.084137
5066.289703	392.923401	-186.492126	390.252472
5066.293465	390.702515	-186.433655	383.940399
5066.296803	389.066040	-185.849213	377.160736
5066.300202	386.260681	-185.264771	370.497955
5066.303569	383.689087	-184.680298	363.250732
5066.306853	381.175903	-184.446503	356.763306
5066.310138	379.247192	-183.978943	350.918762
5066.313447	377.201660	-183.803619	345.600220
5066.316800	374.454712	-182.517822	339.346588
5066.320135	372.000000	-181.991821	332.566925
5066.323566	370.188171	-181.290466	327.891296
5066.326862	367.908813	-180.355347	321.871429
5066.330213	365.921692	-179.478668	316.436005
5066.333876	363.525391	-178.485107	311.175934
5066.337221	361.655151	-177.900635	305.272949
5066.340614	359.025146	-176.497955	301.532440
5066.343963	357.447083	-175.855042	295.863220
5066.347328	355.284607	-174.686157	291.129181
5066.350616	353.239014	-173.341919	286.161316
5066.353905	351.719482	-172.114563	280.492096
5066.357220	349.966125	-171.296326	275.758026
5066.360596	347.803650	-170.244293	271.140839
5066.363964	346.459351	-168.783173	266.172974
5066.367726	343.653992	-168.315613	260.854462
5066.371028	341.257751	-166.737579	256.587952
5066.374333	339.855042	-165.802460	252.204559
5066.377610	337.809448	-164.808868	247.412048
5066.380934	336.114563	-163.523102	242.619507
5066.384208	333.776733	-163.639984	238.879028
5066.387936	331.789612	-163.055511	234.320282
5066.391260	329.977783	-160.834595	231.339554
5066.394516	328.341309	-160.250153	227.599060
5066.397784	325.945068	-159.841034	224.501450
5066.401100	323.957947	-159.490356	221.170074
5066.404804	322.146118	-158.613678	218.364700
5066.408130	321.210999	-158.146118	215.734650
5066.411416	319.340759	-157.678558	213.922836
5066.414737	317.645813	-157.094086	211.117462
5066.418011	316.067810	-156.801880	208.604324
5066.421300	313.846863	-157.035645	206.208069
5066.425065	312.970215	-156.158966	204.513153
5066.428359	310.924622	-155.516083	203.110458
5066.431645	310.106384	-155.632965	201.473984
5066.434985	308.703674	-155.165405	199.662186
5066.438273	306.833435	-155.691406	197.441254
5066.441605	306.658081	-154.931610	195.687897
5066.445360	304.846313	-154.814728	195.044998
5066.448665	303.852722	-154.230286	192.882523
5066.451945	303.151367	-153.704285	191.479828
5066.455287	302.099365	-154.405609	190.836945
5066.458534	301.222687	-154.347168	189.726471
5066.462272	299.527771	-154.288727	188.616028
5066.465918	299.410889	-153.119812	186.804199
5066.469251	298.125061	-153.061371	186.745773
5066.472585	297.248413	-152.886017	184.992386
5066.475962	297.189941	-152.009369	183.472824
5066.479254	296.021057	-151.600250	182.946808
5066.482587	295.845703	-151.424896	182.420807
5066.485959	294.150787	-151.015778	180.082993
5066.489250	293.741699	-150.606659	178.504959
5066.492591	293.858551	-150.080658	178.504959
5066.495916	293.332550	-150.080658	176.985382
5066.499251	292.864990	-149.379303	176.108719
5066.502581	292.222107	-148.444183	173.946228
5066.505917	291.111633	-148.561066	173.244888
5066.509254	291.696075	-148.561066	172.894211
5066.512578	290.819397	-148.736420	171.608414
5066.515918	289.650513	-147.976624	171.316193
5066.519250	289.650513	-147.918182	170.205734
5066.522582	289.708954	-147.801300	169.445938
5066.526359	289.182922	-147.625946	169.036819
5066.529722	289.007599	-147.509064	168.978378
5066.533026	288.656921	-147.859741	168.101700
5066.536352	288.014038	-147.918182	167.984802
5066.539679	287.312683	-147.859741	168.335480
5066.543004	287.780243	-147.625946	168.101700
5066.546329	287.254242	-147.918182	168.277039
5066.549676	287.604919	-148.794861	168.335480
5066.552998	287.195801	-148.794861	169.387497
5066.556335	287.020447	-149.846863	169.153702
5066.559691	287.254242	-150.139099	169.855057
5066.563488	287.429565	-150.548218	170.439514
5066.566839	287.721802	-150.898895	171.433075
5066.570100	287.488007	-151.717133	173.011108
5066.573458	288.247803	-152.535370	173.712448
5066.576763	288.423157	-153.236694	174.472244
5066.580119	290.059631	-153.528931	175.465805
5066.583444	288.949158	-154.054932	176.400925
5066.586828	289.884277	-155.106964	177.160721
5066.590159	290.527161	-155.223846	178.680313
5066.593849	291.345398	-156.042084	180.550552
5066.597233	291.988281	-156.626526	181.661011
5066.600615	292.222107	-157.386322	183.239044
5066.603911	292.748108	-157.853882	184.057266
5066.607295	293.916992	-158.087677	186.453537
5066.610609	295.085907	-158.029205	187.680893
5066.613921	295.904144	-158.847473	188.908249
5066.617222	296.313263	-159.256561	190.661606
5066.620609	297.248413	-160.250153	191.362930
5066.623915	298.125061	-160.250153	192.882523
5066.627266	298.943298	-160.834595	194.928101
5066.630967	300.229095	-160.717712	196.272354
5066.634284	301.339539	-161.711273	197.324371
5066.637609	301.456451	-162.178833	199.194626
5066.640865	303.151367	-163.055511	201.240219
5066.644155	303.852722	-162.821747	202.058441
5066.647864	304.203369	-163.639984	204.279358
5066.651235	305.606079	-165.042664	206.208069
5066.654511	306.307434	-165.451782	207.084732
5066.657787	307.768555	-166.153137	209.013443
5066.661105	308.586792	-166.562256	211.292816
5066.664384	309.697266	-167.205139	213.630630
5066.668140	311.275269	-168.783173	215.734650
5066.671412	312.444214	-169.484528	218.540039
5066.674725	313.028625	-170.594971	220.936310
5066.678000	314.197571	-171.121002	222.631195
5066.681265	315.892456	-172.932800	226.079498
5066.685053	316.535339	-173.809479	228.651077
5066.688306	318.113403	-175.504395	232.800705
5066.691553	320.158936	-176.731750	236.015213
5066.694835	321.795471	-177.959106	239.638824
5066.698144	322.730591	-179.069550	244.080658
5066.701437	323.607239	-180.706024	248.347168
5066.705204	325.360596	-182.050262	252.496765
5066.708485	326.997070	-183.452942	256.354187
5066.711760	328.808899	-185.264771	260.796021
5066.715023	330.153137	-186.901215	265.354767
5066.718320	331.964905	-188.245483	269.971954
5066.722082	333.776733	-189.765045	275.816467
5066.725391	335.763916	-191.459961	281.310364
5066.728708	337.283447	-192.804199	286.745758
5066.731996	338.919922	-194.089996	291.713623
5066.735356	340.497925	-195.492706	297.324371
5066.738623	342.485107	-197.070740	303.110474
5066.741989	344.881348	-198.298096	308.896545
5066.745667	346.459351	-199.408539	314.098206
5066.749235	348.914062	-201.278778	319.475159
5066.752585	350.375244	-202.213928	326.430176
5066.755893	352.128601	-203.207489	331.398010
5066.759220	354.641724	-204.902405	337.417908
5066.762559	356.278198	-205.545288	344.606659
5066.765897	358.440674	-207.357117	349.749847
5066.769227	360.720032	-208.526001	355.945068
5066.772555	362.122742	-209.168884	362.490936
5066.775888	363.759216	-210.980713	368.919922
5066.779221	365.804810	-212.675629	375.407379
5066.782556	367.499695	-213.143188	381.953217
5066.785893	369.077759	-214.545868	388.849823
5066.789248	370.188171	-216.357697	395.395691
5066.792557	372.701355	-217.000580	403.694885
5066.796330	374.045593	-218.052612	410.942169
5066.799665	376.032715	-220.741089	419.299835
5066.802994	377.260071	-221.909973	426.254822
5066.806322	378.136780	-223.546478	434.261841
5066.809647	379.013428	-224.832245	443.730011
5066.812970	380.942139	-226.410278	452.613678
5066.816312	381.409668	-228.689667	462.081848
5066.819647	382.695496	-230.735229	471.140839
5066.822974	383.163086	-232.254822	480.959686
5066.826316	383.922852	-234.417328	491.655182
5066.830142	384.857971	-236.229095	503.168884
5066.833511	384.682617	-237.573364	512.695496
5066.836765	385.500916	-239.502045	523.449463
5066.840066	385.676208	-241.196960	535.547607
5066.843406	385.909973	-242.833435	546.535400
5066.846751	385.909973	-244.762115	558.049072
5066.850082	385.909973	-245.755707	570.614868
5066.853470	385.617737	-247.918182	582.771484
5066.856804	386.143799	-248.853333	595.161926
5066.860132	385.325500	-250.256012	609.013428
5066.863824	385.442444	-250.723572	621.111633
5066.867160	384.273560	-252.184692	633.268250
5066.870560	383.163086	-252.769165	646.710693
5066.873913	382.578613	-253.353607	660.036194
5066.877259	381.468140	-253.645813	672.777283
5066.880570	380.708374	-254.405609	685.927490
5066.883853	378.896545	-254.580933	699.194580
5066.887175	377.376953	-254.697845	711.468140
5066.890594	375.798950	-254.580933	725.319702
5066.893929	373.987183	-254.171844	738.703674
5066.897236	371.707764	-254.814728	751.853882
5066.900970	369.136169	-254.113373	764.945618
5066.904303	366.506104	-253.704285	778.797180
5066.907643	363.642334	-253.353607	791.655212
5066.910921	360.836914	-252.769165	804.571594
5066.914221	357.271790	-252.126251	818.130920
5066.917477	353.881958	-252.067810	830.404419
5066.921285	349.966125	-251.132660	844.372864
5066.924548	345.991821	-250.314453	857.815308
5066.927836	340.731750	-249.963776	872.017517
5066.931128	335.997681	-249.028656	884.875549
5066.934407	330.328491	-248.151978	898.376404
5066.937715	324.659241	-247.333740	910.591431
5066.941491	319.106934	-246.281708	924.501465
5066.944765	312.210388	-245.405029	938.703674
5066.948049	304.904724	-244.294556	952.263000
5066.951347	297.715942	-242.716553	965.646973
5066.954601	290.293396	-241.138519	978.797180
5066.958344	282.286377	-238.742279	991.479797
5066.961635	274.220917	-237.807159	1004.746887
5066.964914	265.220337	-235.001770	1017.663269
5066.968164	255.401520	-233.482178	1030.170654
5066.971492	245.699585	-231.319702	1041.976562
5066.975263	235.237869	-227.812958	1053.957764
5066.978514	225.126831	-224.481598	1066.465332
5066.981801	214.080658	-221.033325	1076.400879
5066.985090	202.625366	-217.292816	1087.914795
5066.988374	190.702515	-214.019867	1097.090576
5066.992121	179.247223	-209.519592	1108.019775
5066.995866	167.850372	-205.019287	1117.780273
5066.999197	155.050842	-200.519012	1125.553467
5067.002533	142.894211	-195.375824	1133.735840
5067.005910	130.620697	-189.998840	1140.164795
5067.009204	118.580948	-184.563416	1148.756348
5067.012562	106.015198	-178.368195	1153.957764
5067.015867	92.689651	-172.173004	1159.977783
5067.019202	80.883698	-166.679138	1164.828613
5067.022535	67.733490	-160.542389	1169.329102
5067.025873	55.343075	-153.061371	1173.069580
5067.029191	41.316189	-146.924591	1175.933350
5067.032531	28.808884	-139.969604	1178.914062
5067.035866	16.652250	-134.008179	1180.258301
5067.039194	3.618935	-127.228523	1181.485596
5067.042533	-8.537701	-120.799522	1181.544189
5067.045855	-21.278786	-113.318520	1181.777832
5067.049191	-34.136765	-106.655769	1181.836426
5067.052528	-46.760963	-100.285217	1181.719482
5067.055865	-59.911163	-93.563995	1180.258301
5067.059199	-72.418472	-86.141441	1178.680176
5067.062970	-84.633545	-79.829346	1175.524170
5067.066376	-97.842209	-73.984802	1172.952637
5067.069621	-110.232620	-67.029808	1168.861572
5067.072949	-123.207489	-60.425484	1164.068848
5067.076286	-136.357681	-53.528931	1159.042725
5067.079625	-148.806549	-47.450615	1153.490479
5067.082948	-161.313843	-41.547638	1147.002930
5067.086286	-174.288727	-34.651081	1139.229736
5067.089616	-187.322037	-29.040329	1132.216309
5067.092993	-198.485092	-21.734657	1124.033936
5067.096778	-210.115707	-15.539452	1115.500977
5067.100110	-222.330795	-9.110462	1105.857422
5067.103382	-234.487442	-2.915255	1097.382812
5067.106710	-246.001175	3.455288	1085.693848
5067.110046	-257.281128	10.468731	1075.232178
5067.113387	-267.801270	16.780830	1064.010498
5067.116734	-279.081238	23.911163	1052.789062
5067.120100	-289.250732	30.866159	1040.807861
5067.123446	-298.309753	37.002922	1029.820068
5067.126694	-307.661011	43.782581	1016.494446
5067.130483	-317.129150	49.977791	1004.104065
5067.133811	-326.012817	56.815899	991.888916
5067.137235	-333.786072	62.601986	978.504944
5067.140528	-340.916443	69.673874	965.004089
5067.143916	-348.455872	75.518410	952.613647
5067.147189	-355.060242	81.187607	938.703674
5067.150489	-362.015198	87.499702	924.501465
5067.153854	-367.275269	93.052017	911.234436
5067.157193	-372.301575	98.662773	897.850342
5067.160545	-378.496765	104.156631	884.524841
5067.163849	-383.055542	108.481590	871.549927
5067.167200	-387.438965	113.917007	858.808899
5067.171009	-391.763916	118.417305	844.665100
5067.174298	-395.153748	122.274696	832.333130
5067.177536	-399.478638	126.482765	820.293335
5067.180823	-402.810059	130.866150	807.260071
5067.184100	-405.790771	133.963776	794.752808
5067.187835	-408.245483	137.587372	780.667419
5067.191154	-411.226196	140.158966	768.569275
5067.194436	-413.680908	143.081238	755.652832
5067.197726	-414.908264	146.821747	743.145569
5067.201029	-417.655151	148.341324	731.222656
5067.204757	-419.408508	150.503784	718.423157
5067.207999	-421.220337	152.257172	706.266541
5067.211290	-422.447693	154.185852	694.343628
5067.214547	-423.733521	156.231445	683.180603
5067.217810	-424.902405	157.984802	670.497986
5067.221615	-425.720642	159.796600	658.165955
5067.224889	-426.655762	160.907074	645.483337
5067.228163	-426.889526	161.491516	632.800720
5067.231472	-427.824646	163.537109	621.754517
5067.234772	-428.058472	164.472229	609.247253
5067.238507	-428.701355	165.290466	596.739868
5067.241819	-427.532471	166.693176	584.875549
5067.245097	-427.298645	167.102264	573.829346
5067.248371	-426.480408	168.621857	562.841614
5067.251646	-425.545288	169.498535	551.678528
5067.254934	-425.311462	169.849213	539.405029
5067.258689	-423.733521	170.959686	528.709534
5067.261965	-421.921692	172.070129	517.663391
5067.265247	-420.869629	172.537689	506.850952
5067.268493	-419.350098	172.888367	496.739868
5067.271812	-418.064270	173.998840	486.102844
5067.275591	-415.960266	175.284637	476.751587
5067.279176	-413.330200	175.401520	466.231415
5067.282504	-411.927551	175.810638	456.587952
5067.285839	-410.057251	176.161316	447.645844
5067.289175	-408.479248	177.154877	437.943878
5067.292518	-405.381653	177.973114	429.995331
5067.295846	-403.628296	178.265350	422.280518
5067.299187	-401.056702	178.148437	413.922852
5067.302503	-399.186462	178.440674	406.850952
5067.305840	-397.608398	178.148437	398.434814
5067.309173	-394.919922	178.732910	391.772064
5067.312505	-392.289917	178.323792	384.407928
5067.315841	-390.887207	177.680878	378.563416
5067.319164	-387.789612	177.680878	370.848602
5067.322504	-385.510254	176.979553	364.653442
5067.325838	-383.815308	176.628876	358.750458
5067.329592	-381.419067	176.453522	352.496765
5067.332943	-379.841003	175.985962	346.535370
5067.336269	-377.795410	175.401520	341.392151
5067.339606	-375.691406	174.232605	334.963196
5067.342980	-372.535339	173.940399	328.534180
5067.346259	-371.015747	172.888367	323.215668
5067.349591	-368.677979	172.245483	317.488007
5067.352928	-367.158386	171.719452	312.111053
5067.356260	-364.353027	171.251892	306.617157
5067.359609	-362.015198	170.199890	301.473969
5067.362920	-359.794250	169.498535	296.623016
5067.366735	-358.157776	168.329620	291.012268
5067.370075	-356.170654	167.628296	285.985962
5067.373445	-353.891296	166.693176	281.602570
5067.376678	-351.787231	166.459381	276.810059
5067.380003	-349.624756	165.465820	271.608398
5067.383343	-347.929871	164.706024	267.225006
5067.386697	-345.124451	163.595551	261.497375
5067.390024	-343.195801	162.952667	257.581512
5067.393408	-340.624207	162.017548	253.957916
5067.396755	-337.877258	161.900635	249.808289
5067.400435	-336.240784	161.257751	245.366455
5067.403824	-333.961426	160.965515	240.690826
5067.407191	-332.266541	160.556396	236.950317
5067.410511	-329.811829	160.205719	233.385162
5067.413840	-327.240173	160.088837	230.170654
5067.417189	-325.895996	160.088837	227.306854
5067.420553	-323.733521	158.744598	223.332550
5067.423839	-321.746338	158.510803	220.176514
5067.427203	-319.700745	158.569244	218.072464
5067.430508	-318.005859	158.218597	215.676224
5067.433842	-315.901794	157.692566	211.818817
5067.437555	-314.557556	157.341888	208.838104
5067.440857	-312.687317	157.458801	206.967865
5067.444140	-310.524841	156.991241	205.506714
5067.447450	-308.946838	157.575684	203.110458
5067.450786	-307.777893	156.348328	200.421982
5067.454088	-306.258301	156.173004	198.668610
5067.457914	-304.914062	155.588531	197.616608
5067.461164	-304.154297	155.413208	194.694336
5067.464476	-302.634705	155.471649	194.051437
5067.467755	-301.524231	154.653412	191.713623
5067.471005	-300.706055	153.776733	190.310944
5067.474325	-299.186462	153.192291	188.732895
5067.478066	-298.426636	153.952087	187.037994
5067.481346	-297.257751	153.016937	185.226181
5067.484645	-296.790161	152.257172	183.881927
5067.487922	-295.971924	151.906494	183.005264
5067.491247	-294.452393	151.438934	181.310349
5067.494965	-293.926331	151.380493	180.082993
5067.498248	-293.166565	150.445358	178.271179
5067.501535	-292.348328	150.211578	176.810059
5067.504794	-291.646973	149.334885	174.881363
5067.508069	-290.711853	149.627106	174.355347
5067.511835	-289.484497	148.808884	173.127991
5067.515120	-288.841614	148.341324	171.842194
5067.518393	-288.374023	148.458206	171.374634
5067.521688	-287.614258	148.165985	169.212158
5067.524988	-286.270020	148.049103	168.510818
5067.528749	-286.094666	147.873764	167.225006
5067.532479	-285.393311	147.406189	166.231445
5067.535808	-284.049072	147.698425	164.945648
5067.539141	-283.873779	147.639984	163.893631
5067.542478	-282.587952	147.698425	163.659851
5067.545822	-281.945068	148.049103	163.133850
5067.549142	-281.477478	148.282867	162.900055
5067.552478	-281.302185	148.516663	161.088242
5067.555809	-280.776184	148.575104	160.912918
5067.559176	-280.016357	148.691986	161.029816
5067.562477	-279.724121	148.984222	160.503799
5067.565812	-279.899475	149.510223	160.679138
5067.569140	-280.133240	149.276459	160.036240
5067.572477	-279.665710	150.036224	160.562241
5067.575810	-279.139709	150.679138	160.270020
5067.579137	-278.555237	150.854462	160.562241
5067.582478	-279.256592	151.146698	161.263596
5067.585804	-278.789001	151.789597	162.140274
5067.589137	-278.613708	151.848053	161.614258
5067.592473	-279.431885	151.672714	163.776733
5067.595807	-279.724121	151.906494	164.010513
5067.599587	-279.957886	152.666260	163.542953
5067.603005	-280.425476	153.075409	164.536530
5067.606231	-281.594421	152.607849	165.179428
5067.609570	-281.828186	153.484528	166.406784
5067.612902	-281.535950	154.185852	166.815903
5067.616233	-282.763306	153.952087	167.341904
5067.619566	-282.880188	154.068970	168.686142
5067.622896	-283.172424	154.594971	169.796600
5067.626242	-284.399780	154.478088	171.199295
5067.629586	-284.399780	155.120972	171.725311
5067.632918	-286.620667	155.413208	173.011108
5067.636763	-286.328430	155.120972	172.777328
5067.639989	-286.620667	155.413208	174.180008
5067.643322	-287.146729	155.939209	176.342499
5067.646679	-287.438904	156.874329	176.576279
5067.650003	-288.607849	157.049683	178.212738
5067.653330	-289.250732	157.751038	178.504959
5067.656744	-290.068970	157.692566	180.550552
5067.660052	-290.828735	158.510803	181.953247
5067.663323	-291.004089	159.153717	182.303909
5067.666651	-292.172974	160.205719	183.589706
5067.670423	-292.289917	161.374634	185.401520
5067.673814	-293.926331	161.725311	186.745773
5067.677188	-293.634155	162.601990	188.089996
5067.680531	-294.627686	163.829346	190.544708
5067.683798	-296.030396	164.822906	191.538300
5067.687117	-296.731750	165.641144	192.531860
5067.690490	-297.900635	166.868500	194.811234
5067.693817	-298.835754	167.862061	196.506119
5067.697137	-299.011108	169.264771	198.960831
5067.700486	-300.589111	170.316772	201.473984
5067.703768	-302.167175	171.135010	203.811798
