time (s)	magX	magY	magZ
5898.150348	144.775574	386.995911	684.653381
5898.153679	146.236710	380.625366	700.609009
5898.157026	146.412048	374.488586	717.032104
5898.160348	147.464066	367.533600	733.630615
5898.163693	148.048508	359.701935	749.586243
5898.167042	148.632965	351.753357	765.717163
5898.170389	149.392746	342.869659	781.906433
5898.173689	149.509644	333.810608	797.862061
5898.177060	150.035660	324.459381	812.707153
5898.180794	150.561661	314.465210	826.792480
5898.184128	151.087677	303.009918	843.274048
5898.187438	150.503220	292.489777	857.710083
5898.190788	151.087677	280.742249	873.315002
5898.194149	150.912338	268.527191	887.283447
5898.197451	150.386322	256.838104	902.070190
5898.200744	149.743423	243.746338	916.213928
5898.204052	149.743423	230.303909	929.480957
5898.207874	148.749863	216.101685	941.403809
5898.211198	148.106949	201.957916	955.372253
5898.214463	146.938049	186.820557	966.184631
5898.217794	145.593811	171.624771	979.334900
5898.221143	144.074219	155.376968	989.679749
5898.224433	142.203979	139.187607	999.907654
5898.227779	139.924606	122.706024	1010.018616
5898.231095	137.586792	105.873764	1020.363586
5898.234472	134.781418	88.340157	1028.429077
5898.237773	132.560486	70.806549	1037.429565
5898.241528	129.229111	53.389832	1044.618408
5898.244882	126.189941	35.096436	1050.638306
5898.248175	121.981888	16.218586	1056.249023
5898.251455	118.592056	-2.016363	1061.099976
5898.254759	115.611343	-20.660433	1065.658813
5898.258043	111.520164	-39.304497	1068.814697
5898.261858	107.838104	-57.656342	1071.269531
5898.264775	104.156052	-75.891289	1072.438477
5898.268515	99.889542	-93.717117	1071.386353
5898.271846	96.207489	-112.244301	1070.918823
5898.275176	92.116302	-129.427246	1069.048584
5898.278448	88.609589	-146.960846	1066.593872
5898.281786	84.284630	-163.734665	1063.671631
5898.285071	80.135010	-180.683823	1058.353027
5898.288468	76.394508	-196.931610	1052.800781
5898.291782	72.244888	-212.127411	1045.904175
5898.295590	68.679718	-226.504959	1037.897217
5898.298985	64.004089	-241.466980	1029.481079
5898.302317	60.848045	-254.967834	1021.298645
5898.305644	57.049095	-268.468719	1010.953796
5898.308985	52.665695	-281.852722	1000.842834
5898.312315	49.568092	-293.834015	990.381042
5898.315660	46.587379	-305.639984	977.464661
5898.318983	43.314438	-317.153717	966.710754
5898.322317	40.041496	-327.381653	953.852661
5898.325653	36.534775	-337.142029	940.702454
5898.328979	33.612511	-347.837524	925.740479
5898.332315	31.157804	-356.136780	912.064270
5898.335658	27.241966	-364.552887	898.388062
5898.338990	24.962597	-372.267700	883.016907
5898.342740	21.046757	-378.930481	868.464050
5898.346075	18.650497	-385.943878	852.274658
5898.349395	15.845123	-392.431335	836.961975
5898.352729	12.046173	-398.334290	821.590820
5898.356075	9.591469	-403.828186	805.343079
5898.359433	6.610756	-409.205139	788.627686
5898.362736	3.863823	-412.594971	773.198181
5898.366094	1.935131	-417.270599	757.593201
5898.369436	-0.928696	-421.069580	741.345459
5898.372759	-3.617180	-423.758026	724.045593
5898.376109	-7.065456	-427.030975	707.622437
5898.379820	-9.169491	-428.725891	690.907104
5898.383158	-11.624195	-430.654602	674.717712
5898.386521	-14.137348	-433.109283	658.645264
5898.389871	-16.416714	-433.459991	643.507874
5898.393274	-18.637638	-434.453522	627.026306
5898.396567	-21.033894	-434.687317	609.668030
5898.399903	-22.670368	-434.219788	594.881348
5898.403161	-24.482174	-434.278198	578.458191
5898.406479	-26.644657	-434.102875	562.911743
5898.409828	-27.930454	-432.933929	548.358826
5898.413656	-29.157803	-431.765076	533.630615
5898.417000	-30.034481	-430.070160	519.136169
5898.420368	-31.963177	-428.667450	504.992371
5898.423687	-32.664516	-426.797180	491.491516
5898.427017	-34.300991	-424.517822	476.704834
5898.430316	-35.119221	-422.647552	464.255981
5898.433700	-35.762127	-420.601990	451.514893
5898.437069	-36.229687	-418.030396	438.364685
5898.440354	-36.697254	-414.874359	426.909393
5898.443654	-36.872593	-411.835175	414.460541
5898.447004	-37.515484	-409.497406	403.297455
5898.450353	-38.392170	-406.458221	391.491486
5898.453757	-38.509060	-403.126862	380.679108
5898.457093	-39.093510	-400.087677	370.217407
5898.460846	-39.268848	-396.522522	360.047913
5898.464137	-39.268848	-394.301605	350.404449
5898.467466	-39.327297	-390.268829	340.702515
5898.470800	-39.794857	-386.878998	331.059021
5898.474119	-40.145527	-382.729431	322.526001
5898.477427	-39.561077	-380.274689	313.759186
5898.480742	-39.970188	-376.066620	305.518402
5898.484058	-40.145527	-373.378143	297.336060
5898.487816	-40.437756	-369.579193	289.504364
5898.491137	-40.379307	-366.130920	282.374023
5898.494489	-41.022205	-362.390411	274.893036
5898.497819	-40.729984	-359.000580	266.886017
5898.501151	-41.197544	-355.727631	260.340149
5898.504486	-41.022205	-352.104034	253.326721
5898.507789	-41.723553	-348.597321	245.845673
5898.511135	-41.840443	-345.149048	239.650513
5898.514450	-41.606663	-341.291656	233.279968
5898.518300	-41.723553	-337.434265	226.558716
5898.521615	-41.898891	-333.869080	220.714203
5898.524958	-41.898891	-330.771484	214.168335
5898.528338	-42.483341	-327.440094	209.492706
5898.531682	-42.892460	-324.284058	203.297485
5898.534963	-42.600231	-320.601990	197.628265
5898.538310	-43.067799	-317.387512	192.075989
5898.541583	-42.950901	-313.588531	187.517242
5898.544946	-42.717121	-310.140259	182.490936
5898.548233	-42.308002	-307.217987	178.750427
5898.551973	-42.366451	-303.711273	173.665680
5898.555630	-41.840443	-301.490356	169.106964
5898.558960	-42.074223	-297.983643	165.074219
5898.562292	-42.015781	-294.944489	160.573944
5898.565628	-42.191113	-291.788422	157.593231
5898.568953	-41.489765	-288.807709	154.320282
5898.572290	-41.489765	-286.762146	150.053772
5898.575626	-41.197544	-283.722961	147.540619
5898.578956	-41.197544	-281.209808	143.332550
5898.582305	-41.022205	-278.346008	140.819397
5898.585621	-40.320866	-275.715973	137.780243
5898.588958	-40.496204	-273.436584	134.857971
5898.592340	-40.262417	-270.806549	132.403259
5898.595625	-40.028637	-269.228516	129.773224
5898.598951	-39.736408	-266.715363	127.961433
5898.602287	-39.151958	-264.786682	124.396263
5898.605619	-39.619518	-262.624207	122.818245
5898.608952	-39.444187	-260.812408	120.363533
5898.612289	-38.567501	-259.000580	118.376396
5898.616051	-38.625950	-256.662781	116.155464
5898.619375	-38.976620	-254.500275	113.408531
5898.622705	-38.801281	-253.331390	112.298073
5898.626056	-39.151958	-251.052002	109.609581
5898.629407	-38.392170	-248.889526	108.382225
5898.632741	-38.625950	-248.129761	106.395088
5898.636065	-38.801281	-245.558167	104.875511
5898.639384	-38.216831	-243.863251	104.057289
5898.642702	-38.742840	-243.161896	101.135017
5898.646040	-38.509060	-240.999420	99.615425
5898.649806	-38.216831	-239.187622	98.621864
5898.653157	-38.099941	-237.843369	97.394508
5898.656496	-38.333721	-236.031570	95.115150
5898.659900	-38.625950	-234.862656	93.244896
5898.663259	-38.859730	-233.459961	91.549980
5898.666530	-38.333721	-231.706604	90.556404
5898.669822	-38.333721	-230.362366	89.270592
5898.673130	-38.333721	-229.076569	87.458794
5898.676458	-38.567501	-228.609009	86.056114
5898.679816	-38.275280	-227.323212	85.179436
5898.683155	-38.333721	-225.511398	84.244301
5898.686575	-38.450611	-224.810074	83.016945
5898.690285	-38.099941	-223.874939	82.315605
5898.693579	-38.509060	-222.238464	81.205147
5898.696960	-38.158390	-221.829330	80.153130
5898.700339	-38.450611	-220.894211	78.984215
5898.703669	-38.099941	-219.725311	79.217995
5898.707020	-37.690823	-219.257751	78.341316
5898.710351	-38.216831	-218.614853	77.756859
5898.713654	-38.216831	-218.147293	77.289299
5898.716947	-37.983051	-217.562836	76.354179
5898.720353	-38.158390	-217.036835	75.828178
5898.723693	-38.099941	-216.160141	75.594398
5898.727431	-37.807713	-216.393921	75.068382
5898.730784	-37.457043	-216.393921	74.893059
5898.734161	-37.807713	-215.458786	74.542366
5898.737435	-38.158390	-215.400360	73.782585
5898.740734	-37.690823	-215.225021	74.367043
5898.744029	-38.158390	-214.991226	74.308586
5898.747330	-37.749264	-214.640564	73.373466
5898.750664	-37.866161	-215.166580	74.074806
5898.754467	-38.275280	-214.523666	74.367043
5898.757773	-38.158390	-214.406799	73.490349
5898.761122	-38.567501	-214.523666	73.607246
5898.764441	-38.509060	-214.173004	73.782585
5898.767739	-38.509060	-214.231461	74.133263
5898.771018	-38.509060	-214.523666	73.957909
5898.774395	-39.502628	-214.348328	74.834602
5898.777748	-39.502628	-214.582123	74.133263
5898.781048	-38.918171	-215.225021	74.776161
5898.784791	-39.736408	-215.517258	75.828178
5898.788171	-39.736408	-215.458786	75.068382
5898.791444	-40.496204	-216.393921	75.477501
5898.794773	-40.613094	-215.809479	75.185265
5898.798097	-40.262417	-215.809479	74.893059
5898.801442	-41.022205	-216.277039	75.594398
5898.804779	-41.255985	-217.036835	75.652840
5898.808080	-41.840443	-217.562836	75.769722
5898.811549	-42.424892	-217.212173	75.945061
5898.814864	-42.191113	-217.621277	77.113976
5898.818193	-42.308002	-218.381058	76.938637
5898.821938	-42.717121	-218.088837	76.704857
5898.825615	-42.892460	-219.433090	77.172417
5898.828932	-43.184689	-219.433090	78.165993
5898.832263	-43.126240	-220.485107	79.042671
5898.835599	-43.652248	-221.186432	80.445351
5898.838926	-44.178257	-222.121567	80.679131
5898.842262	-43.827579	-222.589127	80.971367
5898.845599	-44.704266	-223.173584	82.023384
5898.848934	-45.054935	-224.342499	82.549385
5898.852263	-45.054935	-225.628296	84.185860
5898.855609	-45.113384	-226.680313	84.536537
5898.858928	-45.580952	-227.498550	85.237877
5898.862258	-45.931614	-228.901230	86.757454
5898.865647	-45.697834	-230.362366	88.978386
5898.868943	-46.749851	-232.524841	90.439507
5898.872263	-46.808300	-233.927521	91.783760
5898.875602	-46.983639	-235.330215	92.660439
5898.878929	-47.568081	-237.492691	95.056694
5898.882682	-47.918758	-237.843369	95.874916
5898.886047	-48.210987	-239.830505	98.212730
5898.889361	-49.204556	-242.051422	99.030983
5898.892681	-49.555233	-243.337250	101.602577
5898.896006	-49.905895	-244.739929	103.531273
5898.899386	-51.016369	-246.727081	105.343071
5898.902706	-51.834599	-248.538879	107.154869
5898.906037	-51.717709	-250.526001	108.849800
5898.909361	-52.652836	-252.162476	111.538292
5898.912698	-53.412617	-254.617187	113.759209
5898.916442	-54.113972	-256.253662	116.155464
5898.919773	-54.230854	-258.299255	118.727058
5898.923123	-55.107533	-260.169495	120.597313
5898.926461	-55.750439	-261.981323	122.759789
5898.929888	-56.334888	-264.377563	125.565163
5898.933207	-56.568668	-266.481598	126.909401
5898.936500	-57.737576	-268.527191	129.305664
5898.939766	-58.205143	-271.157227	132.695496
5898.943136	-59.198711	-272.676788	134.741089
5898.946448	-60.426067	-275.014618	138.247803
5898.949788	-61.127415	-277.352417	141.286957
5898.953186	-61.770306	-280.216248	144.209229
5898.956599	-62.413204	-282.378723	147.482178
5898.960263	-63.640560	-285.301025	150.170654
5898.963586	-65.335480	-287.288147	152.917603
5898.966884	-65.744598	-289.625946	156.833435
5898.970281	-67.205734	-292.898895	160.807709
5898.973641	-67.381058	-295.587402	164.665100
5898.976970	-68.023956	-298.158966	167.645844
5898.980279	-69.075974	-300.905914	172.496796
5898.983586	-70.420212	-304.763306	175.886627
5898.986915	-70.478668	-307.685547	180.386932
5898.990332	-72.232025	-310.841614	184.478088
5898.994055	-73.108704	-313.880768	188.277039
5898.997413	-73.926941	-316.686157	195.290466
5899.000729	-74.803619	-320.192871	200.199890
5899.004089	-75.563400	-323.699585	206.044434
5899.007446	-76.790756	-326.738770	211.888947
5899.010745	-77.667435	-330.771484	217.324371
5899.014081	-78.544128	-333.167725	223.578003
5899.017376	-80.706589	-337.142029	230.649902
5899.020697	-81.291046	-339.947418	237.312683
5899.024458	-82.635300	-344.213898	243.800110
5899.027765	-83.570419	-347.369965	251.047333
5899.031098	-85.148453	-351.168915	258.002350
5899.034418	-85.966675	-354.032715	266.126251
5899.037769	-87.194031	-357.539459	274.016357
5899.041119	-88.596725	-361.630615	281.205139
5899.044391	-90.700760	-365.195801	289.153717
5899.047704	-91.986557	-368.936279	298.037384
5899.051430	-93.389252	-372.443024	306.336639
5899.054724	-94.382812	-375.774414	314.986542
5899.058072	-95.960846	-379.164246	324.279358
5899.061459	-97.772644	-382.904755	332.695496
5899.064752	-98.766220	-386.119202	341.871399
5899.068090	-100.928696	-388.983063	352.216217
5899.071448	-102.214493	-392.197540	361.392151
5899.074752	-103.500290	-394.886047	370.684998
5899.078172	-105.195190	-397.866760	381.906494
5899.081440	-106.422546	-400.789001	391.900635
5899.085156	-108.351257	-403.886658	403.531250
5899.088900	-109.403275	-406.984222	414.226746
5899.092234	-111.331955	-410.257202	425.623596
5899.095569	-112.617767	-412.653442	438.014008
5899.098901	-114.195786	-414.465240	449.410858
5899.102233	-115.715363	-417.445923	462.502625
5899.105592	-116.942719	-419.140869	474.717712
5899.108906	-118.520752	-421.303345	487.750977
5899.112236	-119.631210	-424.225616	501.193481
5899.115564	-121.209229	-425.862061	515.454163
5899.118901	-122.436584	-427.849243	529.130371
5899.122233	-123.605484	-428.901245	543.624756
5899.125567	-124.774399	-430.187012	558.586792
5899.128898	-126.118637	-431.355957	573.782593
5899.132237	-127.521332	-431.706604	589.270569
5899.135586	-128.222672	-432.115723	604.933960
5899.138909	-129.508469	-432.349518	621.473938
5899.142231	-130.618927	-431.706604	636.728210
5899.145567	-131.378723	-431.355957	653.735840
5899.149332	-132.313843	-429.427246	669.866760
5899.152657	-133.424301	-428.141449	687.049683
5899.155986	-133.774979	-426.329651	703.122131
5899.159326	-134.417877	-424.342468	719.837524
5899.162652	-135.002335	-420.543579	737.838684
5899.166010	-135.294556	-417.738190	755.196960
5899.169332	-136.229691	-414.056091	772.672119
5899.172681	-136.288132	-409.848053	788.218506
5899.176010	-136.463470	-404.646393	805.284607
5899.179353	-137.164810	-399.737030	821.064880
5899.183078	-137.047913	-394.184692	837.780212
5899.186411	-137.515488	-387.171265	854.086548
5899.189742	-137.866165	-381.209808	869.340759
5899.193100	-137.106369	-374.371704	884.828796
5899.196463	-136.814133	-366.306244	900.901245
5899.199819	-137.164810	-358.007019	915.044983
5899.203153	-137.281708	-350.058441	928.721191
5899.206468	-136.288132	-339.830505	941.929871
5899.209774	-135.762131	-330.245483	954.554016
5899.213076	-135.469894	-320.134430	968.405579
5899.216488	-135.119217	-309.555847	980.445374
5899.220241	-134.300995	-298.509644	990.790222
5899.223614	-132.898300	-286.586792	1001.953308
5899.226929	-131.495621	-274.196381	1012.940979
5899.230251	-130.151367	-261.221527	1022.175354
5899.233603	-128.339554	-247.779083	1030.708374
5899.236939	-127.053772	-234.511993	1040.001221
5899.240298	-124.482162	-220.602005	1047.716064
5899.243599	-122.670364	-205.873764	1054.495728
5899.246919	-119.397415	-190.619537	1060.457153
5899.250253	-117.760956	-175.073074	1065.658813
5899.253589	-115.014023	-158.357697	1070.568237
5899.256963	-111.682632	-141.759216	1074.250244
5899.260684	-108.760361	-124.751595	1076.471191
5899.264021	-104.961411	-106.808884	1078.867310
5899.267336	-101.746933	-88.340149	1080.211670
5899.270643	-98.181763	-70.864990	1079.101196
5899.273997	-94.850372	-52.571594	1078.867310
5899.277346	-91.226761	-33.985970	1076.003540
5899.280665	-87.369370	-15.517241	1073.315063
5899.283960	-83.511978	3.535944	1070.685059
5899.287783	-79.713028	22.939802	1065.717163
5899.291086	-75.563400	41.642315	1059.872681
5899.294397	-72.173584	59.701927	1052.859253
5899.297768	-68.023956	78.229111	1045.728882
5899.301073	-64.108124	96.464058	1038.247925
5899.304412	-60.309170	114.815903	1029.305786
5899.307727	-56.802448	131.998825	1019.720642
5899.311077	-53.061954	149.532440	1009.083557
5899.314439	-49.789013	166.949142	998.972595
5899.317752	-46.106960	183.021622	987.692566
5899.321517	-42.717121	199.035645	975.419128
5899.324852	-39.853298	213.997650	963.496155
5899.328185	-35.995907	229.310333	950.696716
5899.331551	-32.956753	243.278778	937.546448
5899.334849	-30.151371	257.305664	924.571533
5899.338199	-26.936878	269.988312	909.784912
5899.341470	-24.014614	282.904724	897.160767
5899.344770	-21.559910	295.061371	881.205139
5899.348184	-18.462299	306.399750	866.535339
5899.351454	-15.540035	318.673279	852.099365
5899.355207	-12.851551	328.842773	837.371094
5899.358881	-10.455288	338.310913	822.935120
5899.362208	-7.591461	347.720642	808.265320
5899.365542	-4.902977	356.954987	792.718811
5899.368877	-1.571598	365.312683	778.107483
5899.372210	1.116894	373.495026	762.561096
5899.375540	3.279369	381.209808	747.891296
5899.378895	5.441849	388.340149	732.637085
5899.382203	7.896553	394.886017	716.681458
5899.385546	10.701931	401.198120	701.953247
5899.388870	12.221508	406.458191	686.056152
5899.392208	15.143780	411.075378	670.451172
5899.395537	16.663357	415.984802	655.138550
5899.398876	19.001171	419.842194	640.176514
5899.402258	20.871422	423.173584	624.980713
5899.405540	23.092342	426.212738	610.252441
5899.408874	25.488605	429.076538	594.530640
5899.412207	27.183521	431.122162	579.334839
5899.415977	28.761545	432.817047	564.781982
5899.419308	30.339569	434.687286	550.813538
5899.422653	31.976040	435.563995	536.143738
5899.425962	33.437172	435.856201	521.415527
5899.429298	34.430744	436.732910	507.680908
5899.432628	35.658096	435.739319	494.004639
5899.435989	37.119232	435.563995	481.322021
5899.439345	37.703682	434.395081	468.054932
5899.442652	38.755699	433.693756	454.904724
5899.445987	39.457047	432.583282	443.332550
5899.449723	40.158390	431.122162	430.182343
5899.453045	40.801289	429.602570	418.902374
5899.456402	41.853302	428.375214	405.518433
5899.459749	42.087086	425.277618	394.939789
5899.463141	42.729984	423.524231	383.367615
5899.466474	43.197548	421.361786	373.665710
5899.469818	43.489773	418.439484	364.139099
5899.473044	43.197548	415.634125	352.976013
5899.476382	43.431328	413.413208	343.683228
5899.479713	43.489773	410.198730	334.390411
5899.483073	43.314438	407.510223	326.734070
5899.486883	43.782001	403.769714	317.558167
5899.490238	43.723557	400.672119	308.265350
5899.493536	43.431328	398.158966	300.024536
5899.496867	44.074226	394.067810	292.075989
5899.500204	44.249565	390.970184	284.244293
5899.503550	44.541790	386.762115	276.120392
5899.506922	44.249565	383.489197	269.048523
5899.510252	44.541790	379.748688	261.684387
5899.513572	44.541790	376.183533	253.969604
5899.516890	45.009354	372.969025	247.423737
5899.520696	44.658680	368.819397	240.118073
5899.524021	44.950905	365.137360	233.805939
5899.527336	44.892464	361.689087	226.792511
5899.530667	44.834015	357.656342	220.714203
5899.533952	44.775570	354.149597	214.694305
5899.537309	45.009354	350.584442	209.200470
5899.540648	45.184689	347.077728	203.122162
5899.543959	45.009354	343.103455	197.219177
5899.547260	45.243134	339.187592	192.309753
5899.551005	44.600235	336.031555	186.932800
5899.554370	44.366455	331.940369	180.620697
5899.557694	44.717125	328.258331	175.769714
5899.561010	44.658680	324.693176	171.210999
5899.564356	44.191116	321.127991	166.360016
5899.567678	44.249565	317.270599	162.327271
5899.570978	44.191116	313.880768	156.541199
5899.574310	43.782001	310.666290	152.859161
5899.577587	43.255993	307.276459	148.709534
5899.580970	42.788429	303.711273	144.326141
5899.584745	43.022209	299.912323	139.767365
5899.588069	42.437759	296.931610	136.319092
5899.591467	42.379311	294.360016	133.338409
5899.594814	42.496201	290.794861	130.474579
